-1.695850885483374482e+00,-1.706473778060848767e+00,-1.661353256187827032e+00,8.132410618311659567e-01,8.092186757809672892e-01,7.263366061179090671e-01,-1.723986298136899464e-01,-1.613959011621415307e-01,-1.287054146002481470e-01,-1.220071821440258664e-01,-1.173082248037638359e-01,-9.358224382344997039e-02,3.292334057689209614e-01,3.193822545526842638e-01,2.637003219629895923e-01,-7.712455214745277121e-02,-3.829995989305419457e-02,1.207774790503723245e-02,-6.481336127115705503e-02,-1.235151312761466613e-01,-1.430555198803633854e-01,-2.013719855684605597e-01,-1.673004279922708504e-01,-1.416445419690435248e-01,2.362632445476132159e-01,2.368135815801927224e-01,2.072236810668464102e-01,-4.485096739584976122e-02,-5.085309679892729279e-02,-4.077551419254713677e-02
-1.190312619353884438e+00,-1.120637487186523895e+00,-1.042614144350444194e+00,2.975464265109298845e-01,2.247670176170339373e-01,1.569285999470280968e-01,-1.279560222529090296e-01,-1.154944441638534047e-01,-1.182589541621538315e-01,-7.907528898609138962e-03,-2.695318450265457924e-02,-2.320529924650030149e-02,5.820592459550790604e-02,4.168985065425005049e-02,-1.842587701810552425e-02,-7.618365804877183511e-02,-7.720497650050514582e-02,-3.885110663049540919e-02,1.280018371069108485e-01,1.109273461856507270e-01,7.079598928744261499e-02,-2.064359999307454341e-01,-1.378103415313786662e-01,-7.354633945498598169e-02,9.935749030897453316e-02,4.353193636911276143e-02,5.207642587300595483e-03,2.579152676771843261e-02,5.727636965805920494e-02,8.205354691829779001e-02
-1.388714319910859141e+00,-1.391583513975743980e+00,-1.349004505551972821e+00,2.809303529204019156e-01,3.142854268819483265e-01,3.140530692778602528e-01,8.664625935492260844e-02,4.911393147349338989e-02,-1.125763853469328481e-02,-1.883379062938188020e-01,-1.579935033167767788e-01,-9.919445106921442878e-02,2.981545138760836045e-01,2.553587473284671949e-01,1.795403820844725662e-01,1.558867055305423154e-02,-1.715523166100326943e-02,-3.932787442762192970e-02,-1.304168609435336357e-01,-7.123986054090004905e-02,-2.339267373745336238e-03,3.762943023851306190e-02,2.224879613595515462e-02,-2.180363801465088486e-02,3.946404788623777971e-03,1.044448598357918326e-02,5.045712892261705607e-02,-1.525343797812568104e-02,-1.335191506322030985e-02,-2.102763053591401310e-02
-1.335533689464639240e+00,-1.109667146544763838e+00,-9.570797781137305726e-01,3.295089798322254349e-01,-2.938369589663560044e-02,-1.709488453124108354e-01,2.648978399837116290e-02,1.387352773496206559e-01,8.589213720840889466e-02,-1.120148110369824784e-01,-3.850531988530620647e-02,4.545283121910296403e-02,3.190596142119446477e-02,-6.173516073979291169e-02,-9.664006128205689106e-02,8.145862731860736838e-02,4.855388875720380998e-02,-1.619123557206264899e-02,9.564841049710432960e-03,6.190588143925701559e-02,7.088192424990677476e-02,-1.794826416602954555e-01,-8.620138843970448495e-03,8.487119810007874576e-02,2.207811446912799069e-01,-6.238964099593383161e-02,-1.529594716065180160e-01,-7.254319900540368016e-02,6.123662435559620171e-02,1.068436868712228094e-01
-1.351930645530887709e+00,-1.318062876207961143e+00,-1.239791330132507641e+00,3.626937354843908778e-01,3.041460083051463203e-01,2.064982373817756123e-01,1.070838599665912584e-02,1.994242305937590169e-03,4.940773577624400434e-03,-1.023923854188163590e-01,-5.600575498548462927e-02,-3.721702400030969110e-02,1.194925436162903032e-01,1.098353997297704665e-01,1.019560054384383574e-01,-1.063449632254229865e-01,-1.285739050032285724e-01,-1.212781527248468910e-01,9.331002578069169662e-02,7.499097463800051544e-02,3.618124345662213776e-02,-1.647004951149638741e-01,-7.273268371169236413e-02,1.297610193938194753e-03,1.244443709661706976e-01,4.423762704544568353e-02,-1.805483314076374024e-02,1.487908077868681581e-02,4.029711724410938584e-02,6.556931789052682091e-02
-1.237863391634124177e+00,-1.165683588288074057e+00,-1.079065579953084830e+00,1.926259019741856093e-01,1.168635246456223575e-01,4.899489830827488679e-02,1.001041473850022290e-01,7.712847313016028827e-02,3.769069850330790394e-02,-8.157296351482233587e-02,-4.506050453751875989e-02,-1.831144399040155954e-02,9.722393278084423551e-02,9.623570971439102117e-02,8.398681904531557496e-02,-1.525063433707936622e-01,-1.522625205025695816e-01,-1.278212262710890779e-01,5.531382056765522803e-02,2.813793775170063405e-02,7.200072660507685074e-03,-4.660413511916611934e-02,-2.128150559178006163e-02,-1.195387789970570741e-02,6.242155149704110145e-02,3.343540752131766297e-02,1.646964926350001635e-02,1.096480769593907723e-02,3.257253022557246580e-02,4.287459336368932422e-02
-1.103321512904602342e+00,-1.102225657604115172e+00,-1.088486673266348514e+00,1.032566511517315350e-01,1.079340146228817826e-01,1.173166086829526555e-01,3.627174073548611322e-02,4.074082148181550067e-02,2.520586019743908598e-02,-7.341798916716861523e-02,-9.128530889405739313e-02,-8.669347919395026247e-02,3.160338835440264921e-02,4.189668722848086113e-02,3.545954118774963942e-02,3.241464471927500701e-02,2.382706922895882345e-02,1.330744041709893896e-02,-6.633457826898869758e-02,-6.273950140965453559e-02,-4.582624730034910721e-02,6.612626478543412456e-02,5.456777089289220617e-02,2.504369937925982059e-02,-5.059826052425562409e-02,-4.758228932381110277e-02,-3.441467682719422799e-02,2.420002198140023056e-02,3.504903316269116637e-02,3.923830101923484609e-02
-1.087054582866252783e+00,-1.059861358439684098e+00,-1.006052376237239532e+00,6.646991845246148778e-02,5.399888556726901989e-02,8.869795227316601069e-03,-3.736173479314981033e-02,-3.745774993940684944e-02,-2.151408202346676013e-02,-8.607242307461189512e-02,-1.179405521121825728e-01,-1.497033757471080417e-01,1.667594876072900079e-01,1.858229505870510612e-01,1.771120881565122762e-01,-3.934819769183472982e-02,-2.362084642131201048e-02,1.041169808878244368e-02,3.662403476764837518e-02,-7.155969679265614114e-03,-5.148784388670952367e-02,-1.240545043393883190e-01,-8.288250424528567639e-02,-4.019716707423217489e-02,6.767043913634428198e-02,5.035290311736347751e-02,2.572792703520997148e-02,3.655223560250043385e-02,3.890286648518537227e-02,4.696254332194858827e-02
-1.214457629308167919e+00,-1.198580789980972838e+00,-1.171308382169162332e+00,2.053246839252384215e-01,2.257905602742141804e-01,2.354009367287141219e-01,6.219452365035125357e-02,1.097284605769721817e-02,-4.779763123317644358e-02,-1.772193384897463586e-01,-1.959234844229675865e-01,-1.693324078008911493e-01,1.353298967707775857e-01,2.026080855807566028e-01,2.142507483434620552e-01,1.854506320981416656e-02,-4.096789401379410250e-02,-9.538747111391503164e-02,1.375341889001181414e-02,2.569642508355828719e-02,5.208891852334483763e-02,-1.833140392984911327e-01,-1.601166079045451829e-01,-1.548360901369610909e-01,1.916381542060806575e-01,1.651047926310319769e-01,1.532497354181663884e-01,-5.172053226092158257e-02,-3.452587664673832657e-02,-1.628006673898205539e-02
-1.323393848316944732e+00,-1.315541909518510133e+00,-1.283614384425969535e+00,2.483723464559922101e-01,2.395501161646975963e-01,2.096193737402463619e-01,4.672716670365650166e-02,6.084305969683129894e-02,7.826806803645255939e-02,-1.185152719862266751e-02,-5.217405193761126547e-02,-9.642681095926382284e-02,6.058896937412087264e-02,1.025471898897522688e-01,1.276441337525796860e-01,8.906461692908142214e-02,3.600469154308418018e-02,3.872705013497332750e-03,-1.293354344044059523e-01,-8.044377273671571293e-02,-4.249501440321015039e-02,-1.406056755585552154e-01,-1.254409005811199240e-01,-1.199273624763176199e-01,1.605581990049944341e-01,1.130399339062121561e-01,8.704593911533067829e-02,-1.410829553430967671e-06,2.170811166018569299e-02,3.607766156579206296e-02
-1.729421115013382027e+00,-1.770315488097709000e+00,-1.768782134732810984e+00,8.814327987705914413e-01,9.225072037133779101e-01,8.956634025728441584e-01,-7.429503873522212698e-02,-5.052906925977387886e-02,-1.254445481129085396e-02,-2.254960729202240277e-01,-2.763442228682242985e-01,-2.862913476971417626e-01,2.557279650211328748e-01,2.961538173152604703e-01,2.753424740677259952e-01,-1.803871930939200674e-01,-1.795262441550069810e-01,-1.315249763793286675e-01,6.468790907716992500e-02,9.621905698291135026e-03,-5.046667192609505942e-02,-3.115163487243362977e-02,5.232320812063338822e-02,9.926571236313691537e-02,2.673413298775369554e-02,-3.581954991466453075e-02,-5.668621567708515691e-02,1.253076439613171229e-02,3.224694845565817536e-02,3.629169862249788381e-02
-1.408500324600683085e+00,-1.419779291063429705e+00,-1.405036701889262440e+00,4.484767956019182211e-01,4.592663706557764125e-01,4.400874027010966971e-01,-1.098354312465874560e-01,-1.112530280754611134e-01,-1.111731897979870293e-01,6.346256164172478509e-02,6.399188825009448356e-02,7.633763526791856324e-02,3.407340021380362433e-02,3.351328965138831995e-02,1.458670003293495616e-02,-7.035737087995665162e-02,-7.187340786537906034e-02,-5.412715872983358406e-02,-6.149338896616602865e-03,-2.290097950534861204e-02,-3.457650143953617389e-02,-5.011840596682408389e-02,-3.350464777954283071e-03,1.464473125227812832e-02,1.083465949619874802e-01,6.557009121458788614e-02,4.305807481852731017e-02,-9.191953882844270882e-03,6.984759892577531090e-03,1.632261209455435416e-02
-9.341808183087029205e-01,-9.367589748800339011e-01,-9.418036292054323688e-01,-2.088629884645091736e-02,-3.610936460730423351e-03,2.047751457183719787e-02,-1.033053105969748281e-01,-9.934762386622296437e-02,-9.511339228051050865e-02,7.488971008950581244e-03,1.208274158802482776e-02,1.073750847525505384e-02,6.797972267693176696e-02,5.146632428481712207e-02,3.933143885391318650e-02,3.895173119588452026e-02,3.465663115960773005e-02,3.095515637449710103e-02,-3.498715355199769755e-02,-3.255646032956359404e-02,-3.111554735113763320e-02,1.670679422565816627e-02,2.594927453625103103e-02,3.518141387577062434e-02,-5.269214799126368393e-02,-6.595255089705090445e-02,-7.756742024686592851e-02,1.504037761187435561e-02,1.417276093404784207e-02,9.003192834262896752e-03
-1.338615984729937258e+00,-1.283349939635711978e+00,-1.181560840059979967e+00,3.635148192362397390e-01,3.035843370742123959e-01,1.899210372663940050e-01,3.492541215872543847e-04,-4.960245881261951539e-02,-5.420267506856699113e-02,-1.493364144987174291e-01,-4.782094231612905866e-02,-1.380451836543743899e-02,1.379490722448834528e-01,8.493965949492353340e-02,6.358643588026281768e-02,-3.197593094809013381e-02,-4.342471874956244093e-02,-5.993480752657436017e-02,-1.891420869412482973e-03,4.173110105536764931e-03,4.481382990418987175e-03,-8.253379782735298376e-02,-4.591880762790211123e-02,-4.972945439269009504e-03,1.509758054122899429e-01,7.138220712942759671e-02,9.590912791370476143e-03,-4.829071318164710608e-02,6.159499188482050851e-03,4.699663146371910877e-02
-9.667927794245022577e-01,-9.101745583033319376e-01,-8.598778343428689075e-01,-7.463002198126310327e-02,-9.354078962291703658e-02,-9.082341138568608696e-02,-5.089812678984312333e-02,-9.241463061924309885e-02,-1.272408687720908704e-01,-3.369576219777845744e-02,-1.396574990622971926e-02,1.455682971994204334e-03,7.347925824622253410e-02,1.945247477180915563e-02,-2.828141812897360524e-02,-2.435299399813283666e-02,3.345609575517814868e-04,1.290034250090269993e-02,1.104174526208228507e-01,9.416599771005976227e-02,6.096589117960247994e-02,-9.874876257168277438e-02,-4.851189171306208997e-02,-1.066268746489660441e-02,6.565001022633805416e-02,2.576554832418151073e-02,1.457585127269338254e-03,-3.356939772523001597e-04,1.896639135504523885e-02,4.017109064078646513e-02
-1.335050920079753123e+00,-1.335196753350467613e+00,-1.292679075708881076e+00,3.642221844428999988e-01,3.557877195002390747e-01,3.022615372662801891e-01,-9.431189705023471093e-02,-9.440068607996524030e-02,-9.230079146271780166e-02,-7.512098018148138934e-02,-6.208949350739213779e-02,-2.499342550862156814e-02,1.470802614484852111e-01,1.356317455564523544e-01,9.596746961462389314e-02,-2.183810861588464380e-02,1.595380952355120868e-02,4.670688222871757778e-02,9.638114911606242285e-02,6.910951768853439148e-02,4.639701305704888729e-02,-1.821094701197109866e-01,-1.789920381200535426e-01,-1.708686261582635091e-01,1.460485799097560045e-01,1.289992315062223893e-01,1.200730840384593989e-01,-4.516349513040835567e-02,-3.469197798511063080e-02,-3.047227786789058479e-02
-1.162786653863904007e+00,-1.111469425544753920e+00,-1.042082276451551381e+00,8.564506474794182644e-02,1.736329336561869691e-02,-3.752519857217131299e-02,1.821867744454459814e-02,4.382038106011792306e-02,3.033052167566780213e-02,3.112893324070747231e-02,3.550718671577920288e-02,4.602558565284575048e-02,-5.266515883183789382e-02,-9.008104666574069663e-02,-1.124544991867410942e-01,8.906617806849771724e-02,1.353616443068961228e-01,1.624241319531603556e-01,7.677491368181658948e-02,2.409473119669142474e-02,-2.599196318185280005e-02,-2.010537384782739023e-01,-1.916252855598689353e-01,-1.490768647213267795e-01,1.202309648459521929e-01,1.492533635066606301e-01,1.300737632806521771e-01,-4.344899910741694890e-03,-1.203465226299345499e-02,-1.564872795607772510e-03
-1.390884139630764071e+00,-1.420153296787794339e+00,-1.415512469450657118e+00,4.294385629870381416e-01,4.465187445629185681e-01,4.413046489512015835e-01,-4.523911455765789597e-02,-3.399751396941624870e-02,-4.545452563929062301e-02,-2.277080626381061956e-01,-2.090899194310302522e-01,-1.552280146771887748e-01,2.939195667077544316e-01,2.721998639006465992e-01,2.262120593957273607e-01,-1.346900326138410035e-02,-9.876057938759950569e-03,-3.051122903119632759e-02,-4.820861997696997137e-03,1.672606240897892005e-02,7.279869319192729116e-02,-2.775722524163548588e-01,-2.935175331976770385e-01,-3.300109757928097465e-01,2.293401637242410973e-01,2.282027567938920420e-01,2.265865373767787239e-01,7.133115374886919019e-03,3.094770203562137358e-03,9.899127541681172759e-03
-1.518469063560903942e+00,-1.546223652408662996e+00,-1.549651039843202183e+00,6.241430742240891005e-01,6.495033251232186222e-01,6.434937731301250130e-01,-1.535460159757905396e-01,-1.401161938681684815e-01,-1.217378070778127874e-01,-3.842235923147333670e-02,-5.434825274920537796e-02,-5.835630780375139492e-02,1.113468073950025644e-01,1.173760032272342657e-01,1.127997294940275286e-01,-7.844421226022005311e-02,-5.926765869697320915e-02,-3.978242978912799321e-02,1.001134627081412681e-01,6.945700041576476080e-02,3.394240255040938126e-02,-1.792027303952212214e-01,-1.759975714272580816e-01,-1.576688965703821055e-01,2.415255516869036501e-01,2.495707022342109616e-01,2.387761111871867792e-01,-1.088724451668535292e-01,-1.098135070852323952e-01,-1.017055777636364650e-01
-1.489782094390259326e+00,-1.455634088551275074e+00,-1.374945357309728333e+00,5.766389074461576447e-01,5.307844683195686031e-01,4.333063467109019018e-01,-1.947012415388785223e-01,-2.005288389773327573e-01,-1.864767712414202028e-01,1.066045637746628194e-01,1.264400746850030399e-01,1.206800297388528759e-01,3.296864159555445983e-02,1.752966019818320842e-02,1.034652880356698793e-02,-2.844177915277959837e-02,-4.872423424152854537e-02,-6.199282414344959441e-02,7.314548779017380695e-03,5.255082875170254131e-02,8.233178328083011477e-02,-6.095300998495178924e-02,-5.072525045845950598e-02,-4.528966591094443078e-02,3.804889099288268073e-02,-7.456737921972544925e-03,-1.622260711689971907e-02,1.248999111489326394e-02,3.592612757781819821e-02,3.840022705948314963e-02
-1.701361959142191127e+00,-1.668303709619389563e+00,-1.564184986009071965e+00,8.690124075060683406e-01,8.364918756644424969e-01,6.799324626424269047e-01,-1.259063948712544345e-01,-1.495445286509208549e-01,-1.169855621459467698e-01,-1.945147272168717967e-01,-1.954780649414263882e-01,-1.601228763662570498e-01,2.476664843740742639e-01,2.960821192334543439e-01,2.566479231673129968e-01,-5.870715728009594930e-02,-7.579854097532034984e-02,-2.451812911377830237e-02,-3.779259711681857981e-02,-5.409334591086102650e-02,-9.141389498276761283e-02,-1.953910474141916098e-01,-1.458714244842411745e-01,-9.517763416768942886e-02,3.314570340639145241e-01,2.455347129597288958e-01,1.538873598617417904e-01,-1.343339187305214177e-01,-8.890392049430174970e-02,-3.797139138639596401e-02
-1.631609860736290774e+00,-1.635996415378645485e+00,-1.586774043463101913e+00,6.246686405374016759e-01,6.391994282062397614e-01,5.676066494041667188e-01,2.877154869093611830e-02,1.856363929586042627e-02,5.367776034191934498e-02,4.188584083114280793e-02,1.531444192214415426e-02,-3.609090406035912746e-02,-8.115715517815848268e-02,-4.100427593719294106e-02,2.367248429965040230e-02,-2.267817835854000347e-02,-5.210186909683495182e-02,-9.070269714569507979e-02,2.777370592429660029e-02,6.201051855190917173e-02,7.980867903531871366e-02,-7.958421959052792982e-02,-1.367835508679307588e-01,-1.577551028432708780e-01,1.460355881513296927e-01,1.994196438952891837e-01,2.080301481700460586e-01,-5.383391538901213802e-02,-6.839082277671512666e-02,-6.130668221300838994e-02
-1.456591163767738895e+00,-1.477583955545041405e+00,-1.461583472814914186e+00,3.883108002452242413e-01,4.138059722597117740e-01,4.166182641155302124e-01,1.204011729719276919e-01,1.301290774004877360e-01,1.232304669254267598e-01,-1.875517093110421474e-01,-1.953852749521280130e-01,-1.947889138622737049e-01,1.747665019289273425e-01,1.601690951312476352e-01,1.412014372197261391e-01,-4.106407811373934125e-02,-2.900111352286094055e-02,-3.215251802400017483e-02,5.932908906614661748e-02,3.190220355397502955e-02,1.009398653027728833e-02,-1.577655951945028945e-01,-1.359848895233259913e-01,-1.037390633140436585e-01,5.803231973096097812e-02,9.063089168094630443e-02,1.236868147498909887e-01,4.231925674909280122e-02,1.145716197902089256e-02,-2.246663181912524759e-02
-1.172155333260198384e+00,-1.128253198274405733e+00,-1.065121378064233681e+00,1.607079788074302906e-01,9.677827573056139998e-02,3.465343363408096566e-02,4.200084781270670836e-02,4.920337224182814301e-02,4.165665714699581801e-02,-1.294867685398489454e-01,-1.077343354881019344e-01,-9.021671670724733250e-02,1.224027566482185220e-01,1.128828174094543418e-01,1.014750926390160929e-01,1.069912251787977567e-02,-8.944311827333970358e-03,-3.772037730564922753e-02,3.459665894450399126e-02,4.746148099161552614e-02,4.681018737706396649e-02,-1.883534461096664503e-01,-1.975867144770892259e-01,-1.649514215855780452e-01,1.460791195393168762e-01,1.423140239277889130e-01,1.279079461472270862e-01,-2.640971228417772487e-02,-6.049772807180687877e-03,5.569656639854657192e-03
-1.200348295638409946e+00,-1.162971694913007337e+00,-1.114082306983140258e+00,1.950530903412883987e-01,1.475134834937284201e-01,1.043712445460795307e-01,4.973638143098457060e-02,4.234186055769034729e-02,1.820433356834850677e-02,-9.317352964903151402e-02,-5.595678798378819763e-02,-2.396268459482929838e-02,6.971890006438229148e-02,4.044058887657792090e-02,2.160289203108835265e-02,1.265354649268593187e-02,6.073610407043844063e-03,-6.295833174472588098e-03,-2.658781377805607277e-02,-7.681944664315198566e-04,2.405385894102381530e-02,-9.454045901625816872e-02,-8.244599390530632510e-02,-7.368749024100214318e-02,8.719922706920596456e-02,5.282160166640231802e-02,2.611453507173811320e-02,3.812767263956272422e-04,1.302407830709689275e-02,2.373813392517167692e-02
-1.551814484739253874e+00,-1.543266146776557157e+00,-1.503287942099704733e+00,5.360659032680072933e-01,5.364706690279705814e-01,4.992281028304624280e-01,1.544794228900293331e-01,1.506375772940078406e-01,1.411824500662484660e-01,-1.838250094764162512e-01,-2.322869124364272675e-01,-2.668927081365520815e-01,-1.148987956052296006e-01,-7.163316964664206976e-02,-1.445572445074928478e-02,5.672672839866748501e-02,6.184757514951950974e-02,4.668351897138725559e-02,1.765979301863077888e-01,1.826381522030181281e-01,1.761520577005161459e-01,-1.727120200936233529e-01,-1.982160587964180154e-01,-1.920840389019544125e-01,2.090843498266520828e-01,1.947460805809743678e-01,1.566071769889839926e-01,-1.094627086936071497e-01,-8.072842233576636717e-02,-4.296130224094001082e-02
-1.078949171913124339e+00,-1.077058315544003220e+00,-1.082575516608919042e+00,-9.368934514028516569e-02,-9.497504484221368226e-02,-4.679008346693466075e-02,1.559737742122891367e-02,-4.254089744810433948e-02,-1.370356626904663255e-01,-8.918888397343449626e-02,-1.057205879596870637e-02,1.144705158219955499e-01,4.147278079301653930e-01,4.654118848334784508e-01,3.965134215138340634e-01,-1.713168681530645443e-01,-2.315090280882808327e-01,-2.178545999392778876e-01,-5.919744620730639853e-03,-5.712848804941835640e-02,-1.223579657719489622e-01,-1.099316282232639004e-02,2.228285229072255597e-02,3.668519061245598123e-02,-5.441947146826967008e-02,-7.401778328832810117e-02,-1.600471687922944142e-02,7.455914570228938665e-02,1.004196589879698120e-01,7.516664531229304280e-02
-1.651719132211322938e+00,-1.620894632698550275e+00,-1.570769463136223676e+00,7.490140389743925597e-01,6.994707659767221974e-01,6.304805829422109875e-01,-1.531281378876579169e-01,-1.572795329671702880e-01,-1.680284750254372461e-01,-5.416105772233295590e-03,2.294013698854060340e-02,6.439787640231901811e-02,7.888665533584826584e-02,7.745431603533510512e-02,5.972167323228851077e-02,-9.091617254024646558e-03,8.095903236777829762e-03,4.259229221626881223e-02,1.141635616215934748e-02,-3.691355346919861224e-02,-1.002591107661649911e-01,-4.758432617729396741e-02,-1.858783470308322458e-02,2.554403953028779733e-02,2.458567777800251333e-02,2.143993323108978749e-02,1.067578856160429461e-02,3.392614359121094367e-03,4.592183953203625955e-03,5.898435562498883025e-03
-1.617060752355830466e+00,-1.609997286914286008e+00,-1.544443707683404776e+00,7.113290756478664045e-01,6.689386964724897133e-01,5.342805030196454696e-01,-7.318319999331580894e-02,-2.940764453110751575e-02,4.926899995819485761e-02,-1.152842937627316933e-01,-1.348923536629723918e-01,-1.484966106218494342e-01,9.580981984100850335e-02,1.322482821545999943e-01,1.505476998098920771e-01,-1.208219708247107796e-02,-4.759505014828697977e-02,-6.062553921497375320e-02,9.022674475382946868e-02,6.762169298655182348e-02,3.429449865098167100e-02,-1.520324771304548961e-01,-8.765663985458888030e-02,-3.215075017682654523e-02,6.176796584345732588e-02,-1.985193985050578980e-03,-5.095890551617981989e-02,1.074913825161817778e-02,4.294044659406839881e-02,6.846855986440916753e-02
-1.194521184678511982e+00,-1.196145875056565888e+00,-1.185209022546899416e+00,1.457005030647616217e-01,1.569636027648438625e-01,1.620317772706867943e-01,2.262796488019567023e-02,2.461536439017918219e-03,-1.219121054887641227e-02,-1.172582598387907505e-03,-1.593924791172432812e-02,-2.965329693848850479e-02,7.781259508704682117e-03,2.103568035302421507e-02,3.189408902021508702e-02,3.598582118721131012e-02,5.202681145417343417e-02,4.881679991496717247e-02,9.077068665235193956e-03,-2.630070046661658889e-03,3.814899019376939791e-03,-1.092425587439980750e-01,-1.021801734516487314e-01,-1.041268018215684155e-01,1.008110683759218945e-01,8.946197393574965850e-02,6.416300303227157054e-02,-1.695088076269450628e-02,-4.975607737388046403e-03,2.052238693180734319e-02
-1.569411961575607251e+00,-1.597545901665389900e+00,-1.588803152110146888e+00,6.157514709369656947e-01,6.472659389772585925e-01,6.256496736897668720e-01,9.462055021308025254e-03,-1.123857676932274799e-03,-2.661176675384705100e-03,-2.577538528879000368e-01,-2.564342007725881056e-01,-2.309878878938471936e-01,2.632388268500410189e-01,2.796653206481960474e-01,2.704392573029618108e-01,-1.238977707811976872e-02,-1.440070275838211192e-02,-1.252651047011461675e-02,-3.626627429220476151e-02,-4.117806325332203088e-02,-4.089151086353930153e-02,-2.283296149512997197e-01,-2.227288068034532220e-01,-2.147718004270431635e-01,1.625925622159367367e-01,1.534277341810677542e-01,1.348863145805593855e-01,5.346354745120040358e-02,5.332650898464947470e-02,5.985935250912404609e-02
-1.030571941988690288e+00,-1.024639395168509992e+00,-9.794258642545828897e-01,1.239526052826647046e-02,3.277367867961322734e-02,-3.611615006984974542e-03,1.256754418399224672e-02,-2.362258228528233903e-02,-2.060467022724588038e-02,4.980289140890407917e-02,4.813980549121862906e-02,2.141939223390690317e-02,-1.354736165646606115e-02,-4.506962693468881918e-03,2.495505735584007539e-02,5.487315307913979978e-02,4.026715099831119915e-02,3.105143497913917874e-03,-8.427353516405786116e-02,-7.872193595788956610e-02,-6.052387886236532122e-02,-6.615431241909300319e-02,-5.258338836531271238e-02,-5.617295763978907147e-02,5.261741730867550149e-02,3.066052676124686460e-02,4.981302783478885887e-02,1.243135192788531046e-02,3.236076418876776550e-02,2.116070869958958794e-02
-1.247553257560829021e+00,-1.219592437550639064e+00,-1.180031900690829749e+00,2.223778234895907591e-01,1.862122433019031131e-01,1.446749478029851488e-01,1.087844541314234026e-03,4.981182766194663936e-02,1.138161526604448415e-01,-9.958137262840868753e-02,-1.871991444197786125e-01,-2.864933882917271579e-01,1.302642472820746966e-01,1.329726969991318897e-01,1.431180519260360495e-01,-4.084001134414961404e-02,3.129431076670820960e-03,6.134500320570208942e-02,6.320186961623795729e-02,3.949800629601309815e-02,-6.268516341704262473e-02,-1.674460987740661877e-01,-1.345938664446089950e-01,-3.534306061994357817e-02,1.764829520120341777e-01,1.347044965824033547e-01,4.905533180783950425e-02,-3.786612601068167078e-02,-4.829469725850890974e-03,5.264810006030807427e-02
-1.486078516562226559e+00,-1.488833571172839987e+00,-1.475145605070906418e+00,6.131829349214666935e-01,6.086406967051055661e-01,5.756339178306206783e-01,-2.416346047408752529e-01,-2.363831134830645664e-01,-2.109231072703706966e-01,8.362078594554348682e-03,-2.790192146452711089e-02,-5.987350158321483318e-02,5.074359405828725994e-02,9.581901811522720858e-02,1.321006971121288509e-01,6.823666712597584172e-02,7.265150487317414973e-02,6.777949793553918190e-02,-5.383814549040510239e-02,-6.778099949649851741e-02,-7.001329874701993361e-02,5.236167362448860413e-02,4.987846107713093946e-02,3.792314736027002642e-02,8.653280110004473585e-03,3.027720764778171758e-02,4.557039617342882598e-02,-1.976482450183541378e-02,-3.618861816589685060e-02,-4.292286444127061534e-02
-1.219242795750849373e+00,-1.191761364451326743e+00,-1.143235316517465572e+00,1.673292412395684936e-01,1.044072367587234040e-01,7.946232962790790444e-02,2.992124568525245804e-02,1.168512321584582736e-01,1.121070285827914792e-01,-6.398540732363300343e-02,-8.671720146206034208e-02,-8.081298315383944608e-02,8.406900897380774340e-02,5.863555935349905324e-02,5.329500281377642923e-02,4.347181123702016647e-02,6.069236345045324332e-03,-5.037175940624172288e-02,-4.060951089569610900e-02,2.984480599506386667e-02,7.197875911443062102e-02,-1.618230527030349863e-01,-1.963716750475756057e-01,-1.832173067033835145e-01,9.773294224322404133e-02,2.760023079592438533e-02,-3.420395030117642787e-02,6.325913123334293842e-02,1.315363763116532136e-01,1.750711019193711138e-01
-1.280320605640089759e+00,-1.246593549736887629e+00,-1.197681690217593298e+00,3.248316234863347085e-01,2.563121844098664726e-01,1.734604599081630560e-01,-4.138265528385935005e-02,-4.523331070244448505e-03,3.061079896277989210e-02,-1.625947327520442867e-02,-2.259069492333311974e-02,-2.275567820344111952e-02,5.505797113286496625e-02,5.022742928839342424e-02,3.743360575688242653e-02,-1.450605985300114087e-01,-1.430179353567629652e-01,-1.308814169008952755e-01,9.858712087097669385e-02,8.504920238895555262e-02,6.783155707156897363e-02,-9.816971880048147581e-02,-6.777690509369160843e-02,-4.494888826746036570e-02,1.316996620434928711e-01,1.092556586745763308e-01,9.672365162784708759e-02,-2.885886853999001384e-02,-1.623396687359532006e-02,-9.708372947796809621e-03
-1.272516201900203203e+00,-1.270181204450668178e+00,-1.259095686123133717e+00,2.166181874672681584e-01,1.888113722674822914e-01,1.777250842278483012e-01,7.869602111299579816e-02,1.600143809825393948e-01,2.114969559203259131e-01,-8.301875860781762761e-02,-1.551672198528634139e-01,-2.282495271503198198e-01,1.093947957957214639e-01,9.481501184275183125e-02,8.790898984138387218e-02,-2.058066793482630705e-02,3.606195402185465027e-03,2.867683684057837495e-02,1.959418272461798533e-02,8.050231930174638409e-03,-1.241266444378245556e-03,-2.548206740675587056e-01,-2.245509667519304808e-01,-2.010521868269673773e-01,1.506494714505651200e-01,1.458456401601109231e-01,1.415532339166780396e-01,5.611661194525471158e-02,4.885388369125723274e-02,4.234497776788485185e-02
-1.156679196623191519e+00,-1.124182287879332165e+00,-1.071671001842006365e+00,1.208758845561972717e-01,9.083305037869619791e-02,5.698555650034158038e-02,7.487614028046712944e-02,5.821767040373447555e-02,2.761960174389986589e-02,-6.918571649411331403e-02,-5.920120217536700702e-02,-4.379018116078082362e-02,-2.759099442876364328e-02,1.175938117161153679e-03,2.230258501705269236e-02,5.869340297805164530e-02,4.465798849684155664e-02,3.979228126183613490e-02,2.987113417347544552e-03,-2.085730280875671208e-02,-4.928536634015201479e-02,-1.724377294739340427e-02,2.073229984422708498e-03,9.857976450084685732e-03,-2.750363044928488820e-02,-4.182929643279223453e-02,-4.180130797201534604e-02,4.093259347396971393e-02,4.924922461587737110e-02,5.009682586937664467e-02
-1.096785690167593197e+00,-1.067966768401240385e+00,-1.043389570302941882e+00,-9.992027197349306888e-02,-1.344408273980305935e-01,-1.507910014124625164e-01,2.901185707848228379e-01,3.013293762342574289e-01,3.116019554216950538e-01,-1.140636267774167295e-01,-1.104783588614285245e-01,-1.275314769899237033e-01,4.357816006939843612e-02,4.500471519123260683e-02,4.283732952156055207e-02,-2.180668522395719927e-02,-2.947139829330311378e-02,-3.303599439384029973e-03,2.018356176785566364e-02,2.947357529675578153e-02,9.552736580156939022e-03,-1.013901299766824526e-01,-1.265142070317415990e-01,-1.475570494093040308e-01,1.348077965911112508e-02,2.302272676939977336e-02,4.669020699228805527e-02,6.676072650196342162e-02,7.017562450752957981e-02,6.200009607860060973e-02
-1.155081663665426861e+00,-1.103984058800707935e+00,-1.038963665290637106e+00,1.148762726971868375e-01,7.747909915218159638e-02,4.172969723681425880e-02,9.460974256195697762e-02,5.547424875728036719e-02,7.195973658514688565e-03,-7.018978106481310597e-02,-4.263764710252195000e-02,-2.082265233076179001e-02,-1.473635014166434221e-02,-9.382475352582629255e-03,-3.330781142821397610e-03,3.634836005701071876e-02,2.491972108381744488e-02,8.325289825478122963e-03,-5.234604262185463958e-02,-6.186293006148724238e-02,-5.691667013989995527e-02,-6.355349766465050176e-02,-5.637663073558266125e-02,-5.929116156719033137e-02,4.286209532302313885e-02,2.677481087706178042e-02,2.143460591669923976e-02,6.733546768549619754e-02,8.970247172922962697e-02,1.007266970581692928e-01
-1.172155333260198384e+00,-1.128253198274405733e+00,-1.065121378064233681e+00,1.607079788074302906e-01,9.677827573056139998e-02,3.465343363408096566e-02,4.200084781270670836e-02,4.920337224182814301e-02,4.165665714699581801e-02,-1.294867685398489454e-01,-1.077343354881019344e-01,-9.021671670724733250e-02,1.224027566482185220e-01,1.128828174094543418e-01,1.014750926390160929e-01,1.069912251787977567e-02,-8.944311827333970358e-03,-3.772037730564922753e-02,3.459665894450399126e-02,4.746148099161552614e-02,4.681018737706396649e-02,-1.883534461096664503e-01,-1.975867144770892259e-01,-1.649514215855780452e-01,1.460791195393168762e-01,1.423140239277889130e-01,1.279079461472270862e-01,-2.640971228417772487e-02,-6.049772807180687877e-03,5.569656639854657192e-03
-1.414316991857831107e+00,-1.361530848338571298e+00,-1.245420927320569859e+00,2.189547958915536441e-01,1.712411047103853112e-01,4.849914580457564961e-02,1.088119969384520047e-01,9.715112391836110139e-02,1.223268798434871268e-01,1.964913860117298294e-01,1.544163033888951986e-01,6.243752560835374305e-02,-1.442073202875129578e-01,-9.656768726160785965e-02,-3.718848482142338846e-02,-1.020471454363463537e-01,-1.499591573829657243e-01,-1.396946203357216920e-01,1.733500515843003631e-01,2.894632873133710649e-01,2.951885020741223387e-01,1.372924432619585314e-02,-7.616216263938814512e-02,-8.824955576566634319e-02,-7.235753493031253647e-02,-2.052176124046493910e-02,2.104035150482136407e-02,2.202711256643224980e-02,-7.181482098055878838e-03,-3.865783779065153081e-02
-1.379732725264849691e+00,-1.381923155586389118e+00,-1.344251473123407203e+00,3.684827854189094976e-01,3.368009028774224256e-01,2.430462230195517270e-01,-4.725480702533212812e-02,2.360027690036101827e-02,1.360673640893528269e-01,5.046411540246366345e-02,1.130298609566246937e-03,-8.569097907069934961e-02,3.036401297815339087e-02,4.645187713613477959e-02,6.779262135122833544e-02,-6.627583578564588684e-02,-8.303953889257902066e-02,-7.383259396350291826e-02,3.136542416572696453e-03,1.264838542003289545e-02,1.706240530368247771e-02,4.374408574546502504e-02,6.956303125981336266e-02,6.180985633512812993e-02,-1.433477313451122712e-02,-6.346510626071096006e-02,-7.556103871345704048e-02,1.158214875911450607e-02,3.837213475583908795e-02,5.365863578000349549e-02
-1.323480414821051498e+00,-1.264498791199290650e+00,-1.138896645748941117e+00,3.328592495618031277e-01,2.203318505264163507e-01,6.143877089116691476e-02,-1.066488872574939718e-02,5.349134727427114211e-02,7.542790298931704995e-02,-1.231623199264968854e-01,-1.477337999180197703e-01,-1.300184957310401290e-01,1.418844401197349447e-01,1.608685078537981927e-01,1.634074675927708331e-01,-1.003853963979223739e-02,2.127386567096632014e-02,1.376504147830985743e-02,2.662960009793608265e-02,-3.531271994291372562e-02,-4.456587993907175360e-02,-5.128025973617866135e-02,-5.061110820118776971e-02,-4.855061912273270219e-02,1.821227707449270261e-02,3.218100934546438974e-02,1.114969661579395116e-02,-8.710272410946467633e-04,1.009275438606338331e-02,3.692325004205843780e-02
-1.224702048444608726e+00,-1.199975731971760995e+00,-1.146273331186855371e+00,1.727972686087860810e-01,1.303092841229293586e-01,6.621444171407085688e-02,1.048392622105412259e-01,9.299503478627636766e-02,6.694556877010196527e-02,-1.242829183368973633e-01,-9.160931555397502923e-02,-3.165408986481654807e-02,7.428737808811136656e-02,8.749862674140009011e-02,5.394928915099544975e-02,-1.086084448988840073e-01,-1.291694989103036595e-01,-8.565917803720443646e-02,6.567085753209450649e-02,4.909089834109626321e-02,2.098144456160707869e-03,-8.533202548085708217e-02,-3.280687111649748661e-02,4.591089629002353262e-03,9.175727825945401150e-02,5.179942080816710148e-02,1.967625072239090334e-02,3.374216409391320864e-02,4.200559718408989479e-02,5.021278872545612698e-02
-1.464776388727857315e+00,-1.473745498027072776e+00,-1.448651489352137611e+00,4.883445410745466120e-01,4.677973784448163919e-01,3.956645347981411764e-01,-4.904962514576455962e-02,-1.493186672145521525e-02,5.437183060017917319e-02,-7.332595118451992744e-02,-8.783474715113803732e-02,-1.225074880910938940e-01,1.572858033746994122e-01,1.674781812953373972e-01,1.770269342132387014e-01,-1.447995188150238699e-01,-1.255913823199859281e-01,-9.717326972580322964e-02,1.588275597669984718e-01,1.050102513364396667e-01,3.158919494581596821e-02,-2.034379727022005424e-01,-1.599667420198733481e-01,-9.025539960554795904e-02,1.588287634501303058e-01,1.633023099830571701e-01,1.485744340548078024e-01,-2.771750817641480125e-02,-4.137102582679853119e-02,-4.853221494457119617e-02
-1.625448655478019866e+00,-1.652832972265837919e+00,-1.644177356877708718e+00,7.338263712821605500e-01,7.795501580470740599e-01,7.604105556261022691e-01,-1.299715209981638919e-01,-1.563940482158631406e-01,-1.422465030986439505e-01,-3.227673018617705381e-03,-1.378001758083478162e-03,-1.880212391031289149e-02,-2.765965150441452441e-02,-2.987093529548283388e-02,-1.098893433485454915e-02,5.333221427035050172e-02,8.438091227126970351e-02,8.176709692220233971e-02,1.003493833709874494e-02,-2.072038310872594338e-02,-7.659990231724563350e-03,-7.420215122290041432e-02,-7.562788413388395192e-02,-1.187102719894981839e-01,6.501816301495436101e-02,8.729850974136303676e-02,1.319452275189811619e-01,-1.415458758935011488e-03,-1.416986975389026779e-02,-3.135409568928308049e-02
-8.455749571251067742e-01,-8.324845915852800982e-01,-7.850489500625542627e-01,-6.850219293703270484e-02,-1.111764782632479465e-01,-1.513642386570547560e-01,-4.837355847576954582e-02,-3.485582899156140085e-02,-5.123263020943170237e-02,-1.737179895882396408e-01,-1.441251178812250899e-01,-1.125002580483577680e-01,1.006533239534693897e-01,9.080719946476925597e-02,8.877985156532548772e-02,1.391877656834308030e-01,1.501398201159195311e-01,1.155582365199115252e-01,-1.873981056098782405e-01,-2.566385453352103552e-01,-2.521118209147804046e-01,1.098284556468499262e-01,1.368875883139284433e-01,1.406505746793471068e-01,1.172290650922068744e-01,1.539809556900462728e-01,1.368280102923493946e-01,-1.431506620176554445e-01,-1.523724298383256626e-01,-1.294066993540463617e-01
-1.467870211053550866e+00,-1.475157049499457917e+00,-1.443073083878577023e+00,4.561554338499168026e-01,4.750799893027345400e-01,4.398285452437449283e-01,7.274911006911172207e-02,5.871991140938328385e-02,5.436941206042494867e-02,-1.455780278537080474e-01,-1.530814648689779178e-01,-1.539544544575579821e-01,8.895725072125995614e-02,1.103319392135772847e-01,1.294712385697306123e-01,-4.734259361584840231e-02,-7.408395252760557881e-02,-9.533929180086275768e-02,1.169441571955827722e-02,2.122366747161437764e-02,1.841328997943526488e-02,-1.810244414836388871e-01,-1.606311532350090943e-01,-1.132348115149734019e-01,2.871572103256215813e-01,2.478973104811563744e-01,1.777381412497024971e-01,-7.466117129698000843e-02,-5.010342048513557328e-02,-1.407375993185543649e-02
-1.540443903814092019e+00,-1.531231749251981133e+00,-1.491486909372133463e+00,5.874429271996911561e-01,5.727471611088408299e-01,5.192748391531457619e-01,-1.200948848093071897e-01,-1.128877890701300984e-01,-9.619370203296181976e-02,-1.173695133262086382e-02,-3.243950617793527058e-02,-4.496666882143930677e-02,1.446769387587986400e-01,1.758198062749308233e-01,1.803448448440293506e-01,-1.357563508965624333e-01,-1.481376864190661891e-01,-1.270186201406740545e-01,1.238874344260568888e-01,1.009832991909352662e-01,5.034659690289645245e-02,-1.232516247246624036e-01,-1.226519907197209103e-01,-1.059787150870102751e-01,1.150210709939049752e-01,1.621602556103374226e-01,1.970729777609095956e-01,-3.952444275891039971e-02,-6.418632404695673310e-02,-8.126251998104488949e-02
-1.295433374758966583e+00,-1.264880026935607971e+00,-1.224823649856485286e+00,2.033918881785466981e-01,1.519489384912430519e-01,1.114070200721278131e-01,1.120676329330596993e-01,1.117669193851020260e-01,8.621521602315589117e-02,-6.541922857995301210e-02,-3.100922196780028089e-02,-1.944995456784126726e-03,2.287062734494864358e-02,2.960303541594519125e-02,4.436067716227749813e-02,3.674840772566469183e-02,-3.626909507108360287e-03,-2.857934700215961077e-02,5.414117338297719240e-02,7.219198341653931816e-02,6.738868381601441360e-02,-1.531227336084007296e-01,-1.603153844641391490e-01,-1.734405667467533718e-01,2.276626526657911376e-02,-5.113762314096173545e-03,2.496072258147408185e-04,6.213168998633715467e-02,9.954750236710328826e-02,1.192534129949645583e-01
-1.666629700052027818e+00,-1.672506144677244233e+00,-1.633337317806227595e+00,7.410816276917716605e-01,7.467936776421514322e-01,6.861314293954901000e-01,-8.683879151584235345e-02,-1.109656510299702886e-01,-1.160396945185037526e-01,-3.595141618418393886e-02,-1.884639804407221841e-02,3.004677215066147919e-03,8.961395204255834246e-02,8.532065526802663780e-02,7.437901462808897690e-02,-1.000428256928612702e-01,-4.806588631502183018e-02,3.287981789679286521e-03,8.552700938639962169e-02,1.762618393080545368e-02,-3.594221985307765460e-02,-1.519884239577380669e-01,-1.089043420965646047e-01,-7.499910341782299594e-02,1.936490276417492107e-01,1.860096497757699474e-01,1.643128325451216620e-01,-6.811400752109185441e-02,-7.623202271509882388e-02,-7.063621174956404014e-02
-1.504146870656354329e+00,-1.533943858220756296e+00,-1.509912792938577830e+00,5.956260755739983814e-01,6.312568597014251992e-01,5.730361864004448469e-01,-1.156664887386894131e-01,-1.212846345612406812e-01,-6.287863960143826036e-02,-9.298652393206660594e-02,-9.540271013363089969e-02,-1.226270983793336239e-01,1.256452080698582108e-01,1.454077010202871056e-01,1.555092816430684588e-01,-1.416967720185021221e-02,-3.957154884276263551e-02,-4.893362251574118194e-02,6.138621066374203364e-03,3.624564318109171901e-02,4.485321495757270405e-02,-1.760774164994266811e-01,-1.967589798764576015e-01,-1.867881930159295267e-01,1.994870027086244335e-01,2.073194727041336172e-01,1.770020098205635217e-01,-2.358848197165992755e-02,-3.307221703404927826e-02,-1.911316181702510386e-02
-1.286473441359070602e+00,-1.241296998738665280e+00,-1.182010112194330276e+00,3.073070006924064068e-01,1.998457324166969251e-01,1.076443499075107890e-01,-3.244346769453582829e-02,4.437508033021775322e-02,7.556167414455858267e-02,-1.285505031838485024e-01,-1.561978457169852785e-01,-1.385483246924795186e-01,1.617675598261086312e-01,1.569544539033710662e-01,1.171556525170331514e-01,1.720082004817884494e-02,4.972302457040346513e-02,7.173432089754350205e-02,-2.097881067117916484e-02,-4.114914741305730067e-02,-4.298108545451265888e-02,-1.502440559442339008e-01,-1.593579642059376189e-01,-1.703736068716943108e-01,1.274167363452723689e-01,1.255534725314381428e-01,1.206600096961113477e-01,5.132468561106210379e-03,2.166161983918958589e-02,4.124961709549811867e-02
-9.809553014008001171e-01,-9.270574849151103081e-01,-8.779295802181527053e-01,-7.359636628606418263e-02,-1.116397306530766687e-01,-1.227422852030439493e-01,1.746500441933718228e-02,-1.944073212899219069e-02,-5.942054201985633166e-02,-9.104520862092049804e-02,-5.436345466609805027e-02,-2.797985482184041361e-02,1.366607164560693921e-01,1.016373306886436123e-01,7.163403137237035756e-02,1.898400552083580849e-03,1.116985405615416281e-02,1.029370167722194924e-02,4.716715415039757567e-03,8.436014031523858536e-03,8.188679976579935765e-03,-1.872335515572252085e-01,-2.008812532824357511e-01,-1.939798599854528627e-01,1.267295613762893236e-01,1.328725884457577777e-01,1.129496924949301567e-01,4.544305392381479958e-02,5.934098515609917412e-02,7.904724242666073819e-02
-1.566986838226062329e+00,-1.574316855176428165e+00,-1.548292832930900920e+00,6.586661516335599043e-01,6.641004503305437678e-01,6.225977677020282375e-01,-1.586107234001832289e-01,-1.530539794754804395e-01,-1.289377763227330942e-01,6.282014303241750808e-02,3.528035848508715572e-02,-8.345670830912404331e-03,3.128163673324385607e-02,6.291749398883515754e-02,1.147258161753602623e-01,-3.327727860604236948e-02,-2.377806364589923893e-02,-2.493773688680522155e-02,8.676540161654879013e-02,3.734726061294316862e-02,-1.159106515306830218e-02,-1.363573677580147137e-01,-7.029547163912051866e-02,-1.243262426643234470e-02,3.862411030374088283e-03,-4.257072913250697227e-02,-7.131028531416874761e-02,5.203811538975618156e-02,6.453430698314810421e-02,6.865367124438460922e-02
-1.501586978543324014e+00,-1.457047881294294189e+00,-1.336496136645500155e+00,5.638813289814549323e-01,5.183261393246590965e-01,3.835936539986398164e-01,7.837830739711354466e-02,8.807778199526590523e-02,8.135489978105413245e-02,-3.151142320269658681e-01,-3.437757931529736855e-01,-2.987926124252889837e-01,2.021989307351837739e-01,2.195759957038224131e-01,1.693093728523719643e-01,5.207642518613943283e-02,1.863172044328850058e-02,2.136949711847623001e-02,-1.545165677633454915e-01,-1.198700761297612910e-01,-1.036238090564739478e-01,-1.506930836830842890e-01,-1.796872845088408888e-01,-1.688041987108968855e-01,2.769464151676422348e-01,3.186128906651984893e-01,2.844885161099379722e-01,-5.141650272534732669e-02,-6.271562942568992272e-02,-3.230179864873752860e-02
-1.319729026139409012e+00,-1.248040618179406147e+00,-1.128784911592404905e+00,3.131135715586894630e-01,1.988758100606221324e-01,7.960129354350800601e-02,7.382052715472915694e-02,8.244762739793613793e-02,4.335269511094746314e-02,-1.488943844453941567e-01,-7.454396227617453297e-02,-1.791453774841351640e-02,1.270581655865425930e-01,3.678774230398840217e-02,-2.246336341694549557e-02,-4.425807828471564620e-02,3.074254252672917187e-02,8.196477091515884383e-02,-1.088635303718067529e-03,-7.477080100928241990e-02,-8.766824616383751823e-02,-1.881163987018009964e-01,-1.415813453813424827e-01,-1.201709188669130290e-01,1.632521338606564842e-01,2.031943442004953415e-01,1.822722584991280093e-01,2.495595900737517317e-02,-1.300316339075926683e-02,-1.008463012357670510e-02
-1.387203471929474796e+00,-1.383579640095678132e+00,-1.371585325158713342e+00,4.160456705959742485e-01,3.969385840286496769e-01,3.781443264529418258e-01,-4.599159249069650207e-02,-3.580911849129884278e-02,-2.148864013618487917e-02,-7.614989878481413788e-02,-8.176339629598536329e-02,-9.629543982037000460e-02,1.252482702596591502e-01,1.318993409448731557e-01,1.309694079872301409e-01,3.732850371075453755e-02,2.405541411445757949e-02,1.295373775874792202e-02,-7.676038569568829906e-02,-2.897763060941013769e-02,1.619521719274280222e-02,-4.858358769420175610e-02,-8.926825284970765773e-02,-1.425736331716104532e-01,5.238892202826989086e-02,6.592036569651403555e-02,1.081793596829010440e-01,3.799586989484784235e-03,6.716089980970604834e-04,-1.443942308081432556e-02
-1.078213965338451263e+00,-1.065069734647977384e+00,-1.049249129500570143e+00,5.939284988381838409e-02,2.665311419220060471e-02,1.124246871729278098e-02,2.535790474413689849e-02,8.322574220481462198e-03,-1.193561185554712321e-02,-6.753586754643767232e-02,-1.903570206139335030e-02,2.129255999131154237e-02,3.108673850612300033e-02,1.180408743731937125e-02,-4.082273922123574525e-03,5.645901170801050084e-02,5.293543123593634492e-02,2.670663841924365151e-02,7.404553560529202050e-02,8.492055410627906420e-02,9.565226853153385722e-02,-1.946908626564113620e-01,-1.759885302106431737e-01,-1.479819857589041998e-01,5.971681506584678584e-02,6.907440096671713103e-02,6.428609773630594715e-02,3.447672744633432929e-02,6.466684326648312886e-03,-5.864910746810977731e-03
-1.323345420734380440e+00,-1.293080366838956774e+00,-1.246099463676510366e+00,2.143272855948473166e-01,2.048022669429059306e-01,1.897467232678932136e-01,1.369439641136527275e-01,1.005273687772749308e-01,5.943135652053937318e-02,-7.927004488771212387e-02,-1.071819573579322477e-01,-1.188728097504547221e-01,5.285511649554013730e-02,8.699494751586497876e-02,9.785318946878888979e-02,-1.489204609359654104e-02,-9.056104771843608708e-03,-5.238729673579501332e-03,6.404507283208130120e-02,3.731707425582456855e-02,7.049170012710113779e-03,-1.032109665774481183e-01,-8.253249909336760060e-02,-6.572845463739360183e-02,4.279936092527633629e-02,5.483172318325608280e-02,6.947411916178293512e-02,9.922443475750483688e-03,7.523876776607750852e-03,1.249286290873851193e-02
-1.298973499247795704e+00,-1.281795228340504744e+00,-1.258171113218556458e+00,1.734712913309106597e-01,1.542839527929119325e-01,1.598153250287567828e-01,1.452698591380267024e-01,1.609496433428484197e-01,1.444250462177190664e-01,-5.455199545209185596e-02,-6.538547092212786127e-02,-8.552148720940108695e-02,7.401231833811187932e-02,2.862100738257417065e-02,-1.791775205354923396e-03,-4.459443412255879868e-02,7.935057807272258290e-03,5.983707224561658766e-02,8.871258497158365786e-02,7.156094230717376103e-02,3.317292303677899651e-02,-1.609860459078886752e-01,-1.810948633833437127e-01,-1.871434991518895474e-01,8.416038306211559572e-02,1.013903021329974063e-01,1.305987346821504969e-01,-6.411089092781909783e-03,3.617560780153786324e-03,4.839419114728753593e-03
-1.733471895505208415e+00,-1.734443598520865049e+00,-1.708184463739105041e+00,8.708842820785006600e-01,8.587719103130421194e-01,7.990552829170437521e-01,-1.152232174766008033e-01,-1.062239408847713840e-01,-7.407570933237948851e-02,-7.414796764956826935e-02,-6.442285967607171149e-02,-5.444183715568387538e-02,-1.934506956842386993e-02,-2.669505110155380792e-02,-4.117628855841822672e-02,3.693677032276223432e-02,4.520022098782375958e-02,6.023824101723466995e-02,9.582737789756681779e-02,8.401102003072288826e-02,6.452716988805222431e-02,-4.270267012082962221e-02,-3.554384596135771318e-02,-2.701777691215520583e-02,-7.015288020204177299e-02,-8.028429986595882195e-02,-8.272216319745348545e-02,5.174689516667586170e-02,5.992108311891499589e-02,6.401284951135267909e-02
-1.427176895807006796e+00,-1.329405146557561812e+00,-1.165318145426418983e+00,4.233979780044577756e-01,1.602403213639746193e-01,-1.522480441555477959e-01,-4.751831478698251982e-02,2.036098081319979436e-01,3.782869053427243000e-01,-4.382502102733810967e-02,-1.379364132918480534e-01,-1.189656080494598811e-01,1.326655326318350037e-01,1.100624310549125767e-01,-1.387497441143751209e-03,-7.976821104847874044e-02,-2.416423002933332925e-02,6.769127671011608560e-02,1.518847265364894894e-01,8.288408208996160542e-02,3.451297944328403366e-02,-2.755182838487593155e-01,-1.678308454420095186e-01,-1.151184706897414312e-01,1.996177260806272780e-01,1.191412436822254922e-01,9.590700224565452958e-02,-3.358670228951024517e-02,-1.644968522281852960e-02,-2.323290216631963487e-02
-9.750415188613291706e-01,-9.767078321519476747e-01,-9.606106943708878632e-01,-1.333117641855847413e-01,-8.080031317714250760e-02,-3.790496936218405721e-02,1.555497170027033693e-01,1.216443260109783958e-01,6.802824703242717208e-02,-9.453973500881331093e-02,-1.184111798821089467e-01,-1.169316783145249727e-01,-1.206391319350428176e-01,-1.228572096024187904e-01,-1.103103108386467857e-01,2.300015927555488504e-01,2.569641896463283892e-01,2.510913111120118280e-01,-8.707941134139916828e-02,-1.385291045423400480e-01,-1.791967911655528434e-01,-4.611696645983606041e-02,1.165239458427639284e-02,7.454310799255860209e-02,8.890566731206332729e-02,4.999128380037450026e-02,3.471507464666979785e-03,-1.730127119388669144e-02,-2.581846579815646938e-03,8.090428488301285026e-03
-1.177608827369404088e+00,-1.159148816253015246e+00,-1.125920363917598532e+00,1.988176181760364925e-02,1.421677429696403296e-02,1.355436763004776168e-02,7.581223194227970641e-02,7.232917188960714949e-02,5.170924416025576842e-02,3.633461615261283483e-03,-6.464858387946393302e-03,-9.840763440431174805e-03,1.024290189554405289e-01,7.683544359998684126e-02,3.564839992646219591e-02,-1.509183910956383816e-02,7.815627104221045326e-03,3.818442242063402325e-02,-5.988254327398208343e-02,-5.747474812473164774e-02,-5.992001861977254429e-02,-1.009832830782780031e-03,-1.853786790572073059e-02,-3.487053490046547466e-02,3.048207652862449518e-02,2.795001022669275220e-02,3.529469706421110853e-02,2.154151662839552672e-02,4.264391435386514356e-02,5.628074609814481127e-02
-1.277188235026130103e+00,-1.277754158427895970e+00,-1.258653644561006146e+00,1.906127948223066138e-01,1.852342600869525679e-01,1.802344950591798778e-01,6.840277412088917319e-02,1.514620793729428566e-02,-4.588988624552599316e-02,-1.051740401435765637e-01,-1.187316330142254225e-02,4.516703477308153108e-02,8.748947258748611400e-02,5.625763586962161805e-02,5.314927401420167785e-02,3.793408190591981283e-02,4.494969068132183970e-02,5.426831618020820647e-02,2.743128004414140467e-02,1.958737965119654659e-02,-5.285570069118204935e-03,-1.323335809773460992e-01,-1.383686869484590798e-01,-1.338820822274020550e-01,8.732883861793316882e-02,8.471796113172848364e-02,8.100327102290802439e-02,1.573000026833008477e-02,2.230781270365398208e-02,3.004871145842478650e-02
-1.580952577391737668e+00,-1.603473361402723008e+00,-1.571618565670721779e+00,5.930036934271480931e-01,6.119176294277647310e-01,5.571722166914429009e-01,-4.183475680831851007e-02,-4.901482645475541827e-02,-5.263997103715997022e-02,-6.901158217137913498e-02,-1.580039226594324650e-02,6.272790812727978282e-02,1.452299763428017698e-01,9.987950116794479249e-02,3.022629752722130053e-02,-3.067461881444005084e-02,-7.620224441555886741e-02,-8.807487236972934286e-02,-6.031797635961226589e-02,2.448858750845347293e-02,8.278933492255358129e-02,-3.706324783034073422e-02,-9.541147980340161650e-02,-1.541626847413125057e-01,7.058037513202677915e-02,1.039482447992769037e-01,1.460854275275388636e-01,1.137456096657519025e-02,-5.954464976817944481e-05,-1.229862832316422176e-02
-1.344024834656223133e+00,-1.340588409402286851e+00,-1.317991986413344030e+00,3.559252504882303159e-01,3.611799869078519687e-01,3.529477720824849563e-01,6.266041041513331633e-02,5.364377312679745324e-02,3.212192617967274400e-02,-2.009134325299404555e-01,-2.161655010601393201e-01,-1.993427500908386274e-01,9.886568116589407318e-02,1.282634816512918108e-01,1.214604500113891927e-01,8.337142348232867706e-02,6.640607927956999890e-02,5.086543909007457814e-02,-3.278447697721369701e-03,-4.179188993807506254e-03,1.018502625484527316e-02,-1.169209042446443941e-01,-1.098567040297647318e-01,-1.092606832449638660e-01,6.072967878660886359e-02,4.486611576402109447e-02,3.074297550925957773e-02,3.701204599266175784e-03,1.651173477162505565e-02,2.832917627866248650e-02
-1.719103643278402815e+00,-1.671807629621450575e+00,-1.560307522628374466e+00,8.236949807856938088e-01,7.378240309139093567e-01,5.427432256350813722e-01,-1.443781914376590925e-01,-6.915085483716480741e-02,6.226083241868445722e-02,7.344604877996369074e-02,-2.466703385087721037e-02,-1.423462756807238327e-01,-3.807492542496715426e-02,4.036253073068264696e-02,1.331964261544644756e-01,-7.279028999699634073e-02,-9.007466631388456879e-02,-1.058709331591120573e-01,1.213263814231233806e-01,1.323781362798607808e-01,1.189482995356462153e-01,-1.674366670432163029e-01,-1.621957223852537322e-01,-1.293758832381674273e-01,2.187148643538712189e-01,1.599945439305889561e-01,8.401087686162710122e-02,-9.506504155120643063e-02,-5.236727277225169952e-02,-3.010054158653800022e-03
-1.280320605640089759e+00,-1.246593549736887629e+00,-1.197681690217593298e+00,3.248316234863347085e-01,2.563121844098664726e-01,1.734604599081630560e-01,-4.138265528385935005e-02,-4.523331070244448505e-03,3.061079896277989210e-02,-1.625947327520442867e-02,-2.259069492333311974e-02,-2.275567820344111952e-02,5.505797113286496625e-02,5.022742928839342424e-02,3.743360575688242653e-02,-1.450605985300114087e-01,-1.430179353567629652e-01,-1.308814169008952755e-01,9.858712087097669385e-02,8.504920238895555262e-02,6.783155707156897363e-02,-9.816971880048147581e-02,-6.777690509369160843e-02,-4.494888826746036570e-02,1.316996620434928711e-01,1.092556586745763308e-01,9.672365162784708759e-02,-2.885886853999001384e-02,-1.623396687359532006e-02,-9.708372947796809621e-03
-1.103321512904602342e+00,-1.102225657604115172e+00,-1.088486673266348514e+00,1.032566511517315350e-01,1.079340146228817826e-01,1.173166086829526555e-01,3.627174073548611322e-02,4.074082148181550067e-02,2.520586019743908598e-02,-7.341798916716861523e-02,-9.128530889405739313e-02,-8.669347919395026247e-02,3.160338835440264921e-02,4.189668722848086113e-02,3.545954118774963942e-02,3.241464471927500701e-02,2.382706922895882345e-02,1.330744041709893896e-02,-6.633457826898869758e-02,-6.273950140965453559e-02,-4.582624730034910721e-02,6.612626478543412456e-02,5.456777089289220617e-02,2.504369937925982059e-02,-5.059826052425562409e-02,-4.758228932381110277e-02,-3.441467682719422799e-02,2.420002198140023056e-02,3.504903316269116637e-02,3.923830101923484609e-02
-1.200348295638409946e+00,-1.162971694913007337e+00,-1.114082306983140258e+00,1.950530903412883987e-01,1.475134834937284201e-01,1.043712445460795307e-01,4.973638143098457060e-02,4.234186055769034729e-02,1.820433356834850677e-02,-9.317352964903151402e-02,-5.595678798378819763e-02,-2.396268459482929838e-02,6.971890006438229148e-02,4.044058887657792090e-02,2.160289203108835265e-02,1.265354649268593187e-02,6.073610407043844063e-03,-6.295833174472588098e-03,-2.658781377805607277e-02,-7.681944664315198566e-04,2.405385894102381530e-02,-9.454045901625816872e-02,-8.244599390530632510e-02,-7.368749024100214318e-02,8.719922706920596456e-02,5.282160166640231802e-02,2.611453507173811320e-02,3.812767263956272422e-04,1.302407830709689275e-02,2.373813392517167692e-02
-1.468583598676739266e+00,-1.496910515575855971e+00,-1.507186197709843745e+00,3.457248658850779477e-01,4.168156742277748239e-01,4.733084393504705112e-01,5.823329441011265012e-02,8.418489251499452694e-03,-4.546783193072870266e-02,-9.135294244285005472e-02,-9.534958926227546372e-02,-7.543127795478285491e-02,1.837595205628089479e-01,2.142251014045387369e-01,2.110783404142421160e-01,-1.779654390113648288e-02,-5.663337699887008303e-02,-8.459236386171471722e-02,1.098342679524715454e-01,1.228749235489102198e-01,1.263807130237077914e-01,-2.419716481691748799e-01,-2.322834326795156779e-01,-2.333856556384366066e-01,1.596999604296522324e-01,1.474084980384430810e-01,1.634703552029443119e-01,-3.732708254453860619e-02,-2.838355428138928174e-02,-2.803980720205464378e-02
-1.277188235026130103e+00,-1.277754158427895970e+00,-1.258653644561006146e+00,1.906127948223066138e-01,1.852342600869525679e-01,1.802344950591798778e-01,6.840277412088917319e-02,1.514620793729428566e-02,-4.588988624552599316e-02,-1.051740401435765637e-01,-1.187316330142254225e-02,4.516703477308153108e-02,8.748947258748611400e-02,5.625763586962161805e-02,5.314927401420167785e-02,3.793408190591981283e-02,4.494969068132183970e-02,5.426831618020820647e-02,2.743128004414140467e-02,1.958737965119654659e-02,-5.285570069118204935e-03,-1.323335809773460992e-01,-1.383686869484590798e-01,-1.338820822274020550e-01,8.732883861793316882e-02,8.471796113172848364e-02,8.100327102290802439e-02,1.573000026833008477e-02,2.230781270365398208e-02,3.004871145842478650e-02
-1.221891859644182343e+00,-1.183625071605255208e+00,-1.134002375233827520e+00,2.092132313635510776e-01,1.475260779462110594e-01,9.284869723609996683e-02,3.130914412774125910e-02,3.658524846227721034e-02,2.803602352388803384e-02,-1.547238949230005378e-01,-1.033052709185814377e-01,-5.957518797626973339e-02,1.862335620018732152e-01,1.161043363657121297e-01,5.601796006677757511e-02,-1.442667523015776221e-01,-1.115276716731402329e-01,-7.617398144005066429e-02,1.103267058980307302e-01,5.310412146015238560e-02,4.828034607864825460e-03,-1.040736821867457168e-01,-2.298538542447972968e-02,2.739393524704737334e-02,-1.213202706196793434e-02,-3.783513288122597462e-03,7.941484536371543057e-03,1.001492694202996830e-01,7.203482294934437924e-02,5.279425554887771932e-02
-1.265727749808378100e+00,-1.251584823350254227e+00,-1.216938309921626438e+00,3.261786435096820091e-01,2.639751517280141679e-01,1.891758314844046440e-01,-4.991337955931828690e-02,5.043197015583777455e-03,5.749701861646339118e-02,-1.425677780419612739e-01,-1.196721423130037015e-01,-8.268340188649951628e-02,1.738333126513426918e-01,1.272320467278356126e-01,6.102055561736278999e-02,-3.814778354991787968e-02,-1.505211469975311321e-02,6.821987136334804400e-03,2.325920176820154769e-02,5.260504307875277404e-03,-9.147379653541901339e-04,-1.235970379097576788e-01,-9.891396458331518093e-02,-9.494435184615952761e-02,1.259881869171200486e-01,1.028744898624160548e-01,8.662116363160250743e-02,-2.921088090019023642e-02,-1.909347655895298618e-02,-5.604547535832075413e-03
-1.594450452974617960e+00,-1.622965915025504913e+00,-1.620952777425697100e+00,6.487013645068263612e-01,6.987837222156586536e-01,7.161831223085528553e-01,-1.223345137129990268e-01,-1.207449057651683311e-01,-1.173820622503861655e-01,-3.030532963609840202e-02,-6.529467403641260603e-02,-9.873147164640529161e-02,2.311979023743089556e-01,2.158525506987896969e-01,1.955824038174638901e-01,-1.239815122079144377e-01,-9.269481876729063208e-02,-7.413142313066052591e-02,1.245141409452380117e-02,2.712022388568749789e-03,2.077423252574866347e-02,-1.140838146265408526e-01,-1.281691750103633454e-01,-1.371826063242465032e-01,1.173820772826258407e-01,1.309623927182320680e-01,1.243812961545632811e-01,-2.436236068627679191e-02,-1.826832708542940747e-02,-8.407981163818759041e-03
-1.399005719330101982e+00,-1.398101731086190069e+00,-1.375308182906324062e+00,4.174637364408330109e-01,3.971280563010965992e-01,3.597853268399003324e-01,-3.982147095152093613e-02,-2.103569835127743620e-02,3.487861553759559995e-03,6.495350696677053282e-03,-2.489228481457859271e-02,-6.273028399329759475e-02,4.200458419156510859e-02,7.656649068031683159e-02,8.983170602700420171e-02,-6.675456445668259686e-02,-6.091563679957065491e-02,-3.364503322242484024e-02,4.256886965809606599e-02,3.364827101836658646e-02,1.142408837060698845e-02,-4.891565389853652634e-02,-6.457479450482833672e-02,-5.027128200251707035e-02,3.687113196407115767e-02,6.864114313802976985e-02,6.773611688099066830e-02,9.237225216295979341e-03,-6.355842203716164165e-03,-1.022743370744300280e-02
-1.049405893571817572e+00,-9.876409821276813661e-01,-9.340639611034822209e-01,3.137334689969326768e-02,-2.375086207500307772e-02,-5.469501494121564722e-02,8.643207929727877992e-02,1.083583591194031553e-01,1.078782482394120695e-01,-1.496434391913431805e-01,-1.902120491721119022e-01,-2.046912939314681767e-01,1.189357704220390388e-01,9.723448324350358885e-02,6.020889851250335600e-02,-4.376534885177332107e-02,-4.385977323181770166e-02,-4.722227983620514574e-02,-3.883330302375550408e-02,9.764709801739428208e-03,4.505301688576072300e-02,-3.104699005531611281e-02,-3.300368055825860653e-02,-3.194032423910367346e-02,2.439363755826681052e-02,-2.154109274671994756e-04,-1.513275449684111512e-02,5.167186417805428450e-02,6.341972147369592805e-02,7.468201101533618325e-02
-1.333430367935764860e+00,-1.326500786880612903e+00,-1.244963414419482994e+00,3.001552861711130893e-01,3.112009346936199794e-01,2.082844544305090528e-01,2.031004813434649642e-02,1.005559369221453551e-02,4.647197388375347987e-02,-1.334579480692134057e-01,-1.426212779641785611e-01,-1.309946544890614184e-01,2.062343743454417566e-01,1.982740109703638731e-01,1.167376095127986152e-01,5.048871400400445353e-02,3.174856115441888199e-02,1.006626252461260834e-01,3.041280778067516691e-02,4.658915336453050421e-02,-1.801595835126644854e-02,-4.344425449601211908e-01,-4.017816457386368945e-01,-2.965401792509940737e-01,2.738897703355187008e-01,2.509220217591148216e-01,1.714654939636705566e-01,1.994620544279716856e-02,2.220030672409670919e-02,4.695890304496519452e-02
-1.629621828649501003e+00,-1.611762677651864983e+00,-1.567163660616115672e+00,6.609105888250238481e-01,6.192868228260354213e-01,5.481127088252053525e-01,-7.934119113778397014e-02,-6.865505442265527891e-02,-5.770377419246620898e-02,-8.353535797821985687e-02,-4.972265215429559626e-02,-8.418989264919516866e-03,2.299328042978051878e-01,1.955786147030145194e-01,1.513064864028806356e-01,-1.523550479473270158e-01,-1.294430845849796896e-01,-1.069595694299706884e-01,1.809619550229443763e-01,1.587262859587467712e-01,1.297456983756909710e-01,-3.167243480743235917e-01,-3.025509669925309231e-01,-2.672150413830474691e-01,1.448079104058273558e-01,1.559400509853157701e-01,1.600243698130677517e-01,4.547316090275606293e-02,3.299672707320478598e-02,1.856061721963446487e-02
-1.651719132211322938e+00,-1.620894632698550275e+00,-1.570769463136223676e+00,7.490140389743925597e-01,6.994707659767221974e-01,6.304805829422109875e-01,-1.531281378876579169e-01,-1.572795329671702880e-01,-1.680284750254372461e-01,-5.416105772233295590e-03,2.294013698854060340e-02,6.439787640231901811e-02,7.888665533584826584e-02,7.745431603533510512e-02,5.972167323228851077e-02,-9.091617254024646558e-03,8.095903236777829762e-03,4.259229221626881223e-02,1.141635616215934748e-02,-3.691355346919861224e-02,-1.002591107661649911e-01,-4.758432617729396741e-02,-1.858783470308322458e-02,2.554403953028779733e-02,2.458567777800251333e-02,2.143993323108978749e-02,1.067578856160429461e-02,3.392614359121094367e-03,4.592183953203625955e-03,5.898435562498883025e-03
-1.319297651740018118e+00,-1.332910391577600162e+00,-1.345175477412775100e+00,2.902566908710832450e-01,2.967983725379346183e-01,3.155138561386886531e-01,4.552517348230649546e-02,5.096999280635981788e-02,5.299399352694862675e-02,-1.332613072435331891e-01,-1.554872380467077764e-01,-1.831743987373573856e-01,1.021087527251766242e-01,1.309956953165525295e-01,1.666148170340688850e-01,-6.240750145392096569e-04,1.406786552559694675e-02,1.000455399335360013e-02,6.800479002241081872e-02,5.624750676605334149e-02,4.849779096123078836e-02,-1.959544938196242647e-01,-2.290642045050425291e-01,-2.621313135811330075e-01,1.716128441051225639e-01,1.905673354204253656e-01,2.138822689997107174e-01,-2.824136250502591247e-02,-2.208525380142605660e-02,-1.695264627539068425e-02
-1.005196534572523337e+00,-9.641237702554164013e-01,-9.280729522076884841e-01,-7.979371080574967912e-02,-9.400167703361150817e-02,-9.274824352303932817e-02,-4.200146390114911817e-03,1.022308517959641090e-03,1.570175017939344150e-02,1.393945863097406090e-01,9.201891604555519077e-02,3.636586084847288208e-02,-5.637651324519509649e-02,-5.279041633099026964e-02,-5.674018107685272622e-02,-4.066737926114450535e-02,-3.307048668172493655e-02,-2.044923544867231421e-02,-2.650713045951259145e-02,-9.094729512543917808e-05,1.909783832706473533e-02,5.604906584731022406e-02,1.786880796642768485e-02,-1.984708247979045589e-02,-4.249697091399249477e-03,2.646528613634425986e-02,5.840071136660539286e-02,2.172406705686617465e-02,6.839117079253896440e-03,-1.161235784490861553e-02
-9.880448587000318916e-01,-9.601489513337065906e-01,-9.377765101360031608e-01,-3.905353137019553639e-02,-3.537055365830582554e-02,-1.382057270545080166e-02,6.202365177203384566e-02,5.042009743087998153e-02,3.094415139981816082e-02,-1.493257809790151935e-01,-1.473372585841057625e-01,-1.292945672667179802e-01,9.907262748014268594e-02,6.538959912847019940e-02,2.218470263833577025e-02,1.166688209026529519e-02,-3.054662810952152308e-03,-1.358933329009482868e-02,1.246384956942341894e-02,8.755971559768677137e-03,3.162821048568219447e-03,-1.210552709951668304e-01,-7.848904617768837078e-02,-4.181720988078380802e-02,1.170528265082195346e-01,7.205131981316673095e-02,3.107251598881442811e-02,-4.731404390067149406e-03,2.784174240507106268e-02,4.898168774507604545e-02
-1.045193099712074636e+00,-1.027708498942267790e+00,-1.014531472102297771e+00,2.664009647468750658e-02,-4.535896261063593685e-03,-1.150141231979663614e-02,1.106746812673902181e-01,1.278317405111978611e-01,1.184070629817936399e-01,-2.769152573511655668e-01,-2.341587405787110832e-01,-1.836796571101877162e-01,1.995902900697770765e-01,1.540145340538685015e-01,1.170235845196739566e-01,-8.706950094816606756e-02,-7.923966694958099743e-02,-8.050538496747118578e-02,9.066644629511086406e-02,3.543563972104465248e-02,1.830115488097134105e-03,-1.426396538636358347e-01,-7.270501812815421960e-02,-2.925480352757378263e-02,1.657523745753784750e-02,-4.308821613634203351e-03,-1.341008511802127545e-02,1.077780135657896848e-01,1.054699565680648210e-01,9.569657445069874868e-02
-1.295746152787860650e+00,-1.259304637034921681e+00,-1.166176761490054670e+00,2.399100821532267613e-01,1.705347696166674143e-01,4.677257295529693021e-02,3.319514862614960510e-02,9.378461964832449094e-02,1.314590916226917594e-01,-4.852166763852614612e-02,-1.096129457247859290e-01,-1.175143018819109347e-01,1.207982856205011279e-01,1.850196220188613516e-01,1.715394570674660113e-01,-5.019649921876258997e-02,-1.475975882577713061e-01,-1.382359289152862991e-01,6.852569852614592838e-02,9.646465024813082045e-02,4.757172769119306921e-02,-2.021386252389535676e-01,-8.163865062141272000e-02,2.094908235570315524e-02,1.846428656094011578e-01,3.631985066880780155e-02,-5.430589839219093773e-02,-5.036722708063415266e-02,1.612555580393492186e-02,5.802908700495515437e-02
-1.049405893571817572e+00,-9.876409821276813661e-01,-9.340639611034822209e-01,3.137334689969326768e-02,-2.375086207500307772e-02,-5.469501494121564722e-02,8.643207929727877992e-02,1.083583591194031553e-01,1.078782482394120695e-01,-1.496434391913431805e-01,-1.902120491721119022e-01,-2.046912939314681767e-01,1.189357704220390388e-01,9.723448324350358885e-02,6.020889851250335600e-02,-4.376534885177332107e-02,-4.385977323181770166e-02,-4.722227983620514574e-02,-3.883330302375550408e-02,9.764709801739428208e-03,4.505301688576072300e-02,-3.104699005531611281e-02,-3.300368055825860653e-02,-3.194032423910367346e-02,2.439363755826681052e-02,-2.154109274671994756e-04,-1.513275449684111512e-02,5.167186417805428450e-02,6.341972147369592805e-02,7.468201101533618325e-02
-1.158020614901596357e+00,-1.182375959335817850e+00,-1.182642827706925637e+00,-1.718354962977152942e-02,1.047159595230557488e-01,1.948770063494915938e-01,1.291571236404690792e-01,4.507200231677964408e-02,-2.651689711820558182e-02,-2.254212334032131351e-02,-5.163439267729955096e-02,-7.850090609146492815e-02,8.571400145105749491e-02,8.854690135439706455e-02,1.002714853879040358e-01,-1.599493806013459751e-01,-1.425794442477542612e-01,-1.388927683993275430e-01,2.259968871678772612e-02,1.474759064724877507e-02,1.539837807576505818e-02,1.863261798627630361e-01,1.767324469862848746e-01,1.342429614886590516e-01,-9.569572601836306980e-02,-9.420659537919244542e-02,-6.404154880541403083e-02,2.993920731350343395e-02,4.126977018846585132e-02,4.602550278090477426e-02
-1.524901642967017468e+00,-1.534272394952468144e+00,-1.527064298369398498e+00,5.399471380386338115e-01,5.236998929890065435e-01,4.898809190539966663e-01,-5.483980564035422639e-02,-1.943486111004304531e-02,2.605811252129346806e-02,-5.434280400694273261e-02,-5.567007900917583102e-02,-7.049984817249860258e-02,1.202540363972828957e-01,1.095416737075450980e-01,1.047449492507909891e-01,-5.754734787055407891e-02,-7.803809104810235930e-02,-9.662741598082974503e-02,5.677886452583696258e-02,9.574104095240172640e-02,1.282425700386972955e-01,-1.978715014230301994e-02,-4.394263569003902664e-02,-7.510261242585514196e-02,2.237931463725664413e-02,3.132401941146277513e-02,5.648952544422457950e-02,-2.773224571050264889e-02,-2.878333908046279421e-02,-3.600014778054105857e-02
-1.479580392000886757e+00,-1.504564086310426818e+00,-1.516496679279336401e+00,5.904092226061388171e-01,6.075062871674080656e-01,6.033810675655028044e-01,-1.640416343605834715e-01,-1.364022362232427954e-01,-9.195994805520836535e-02,-4.312465685632924789e-02,-8.834426293302094502e-02,-1.328004098999936988e-01,5.852797432588154047e-02,8.944030520069352896e-02,1.207207641178604102e-01,1.023576293878964566e-01,1.046797706115222132e-01,9.009487617116217206e-02,-4.954228566953752105e-02,-6.144306925986182250e-02,-6.437137779105236990e-02,-1.217369285468532375e-01,-1.039004661822805070e-01,-9.254487752781939691e-02,1.107234386946910759e-01,9.339275557670696781e-02,7.601765705475288515e-02,-3.812493491373815033e-03,-2.185407766329171340e-04,8.068908850563783972e-03
-1.220742400471070299e+00,-1.248886819212276622e+00,-1.255803070054492432e+00,1.880177023401814473e-01,2.706218133246165447e-01,3.127843178089753096e-01,1.894767251221151083e-01,1.282095973783797527e-01,9.703766495144214299e-02,-3.600340885632019039e-01,-3.899876389320825476e-01,-3.948744009670664967e-01,2.885715102722796188e-01,3.602802544772392146e-01,3.625716626358820305e-01,-1.020621672867789639e-02,-5.608852414823674998e-02,-4.504504270697825413e-02,-1.114080033983532725e-01,-1.149172412741635840e-01,-1.295187427085837117e-01,1.433004966076268927e-01,1.778330937478864726e-01,1.739487683249964778e-01,-2.171779081490192442e-01,-2.661770765653443394e-01,-2.649111619034579257e-01,1.104301021386341897e-01,1.393217916808146273e-01,1.439699777294455307e-01
-1.153698339857710531e+00,-1.126557246213559127e+00,-1.097394181064204277e+00,3.697078529659491436e-02,1.169406254491729864e-02,-1.088640182614812081e-02,1.145983259172161234e-01,9.638424499262124301e-02,7.824551907271337647e-02,-1.492070517818719355e-01,-1.241298134846425122e-01,-1.007401776700756618e-01,1.895580081635508674e-01,1.980272003661351643e-01,1.984494629529131304e-01,9.633562042967706851e-02,6.566940467899406997e-02,3.409269177205781487e-02,-1.298095708710665097e-01,-9.451545984222610441e-02,-6.047698690645422065e-02,-1.205552646805728018e-01,-1.531616194784225782e-01,-1.741190982127590048e-01,1.378151412616732963e-01,1.381977511078974485e-01,1.287060585495030107e-01,-2.178210161469259359e-02,-1.141953942905380923e-02,4.281213585156267050e-03
-1.598636830262960995e+00,-1.558028572356925823e+00,-1.438832411769315867e+00,6.928040841557177032e-01,5.958815586000552056e-01,3.848115480015575907e-01,8.167463671705423728e-03,3.906878849342013127e-02,9.671998214946572747e-02,-2.517978780028857777e-01,-2.010705473084749562e-01,-1.243917899539817434e-01,1.938936869963843457e-01,1.476426377680030155e-01,7.173102413463224025e-02,-1.224652868937071981e-01,-7.374654315258008519e-02,-1.775880515376422608e-03,3.938037706393844595e-02,6.487860170261449712e-04,-5.851167263951196490e-02,-1.849081492812383598e-01,-1.558485835270408959e-01,-9.442271129385311490e-02,2.865245812241152823e-01,2.649796414970967406e-01,1.818355645292923928e-01,-6.266230435124867104e-02,-5.926962813954916864e-02,-1.695870056787477514e-02
-1.421394150670477030e+00,-1.312102793264224410e+00,-1.170807024568766508e+00,4.309474073994374876e-01,2.826953009226669811e-01,1.456011142980401796e-01,2.418011591433667090e-04,3.420432960697598196e-02,2.061938232033176666e-02,-7.899064492737392640e-02,-5.334204959056117190e-02,-3.080870702054445617e-02,1.670254423751642292e-01,9.199693967566098529e-02,4.733951923525296299e-03,-1.349946295476422142e-01,-7.848928925590858974e-02,1.314757646544197078e-02,5.068670519308456079e-02,5.684743039205274878e-02,3.167846741969558566e-02,-1.123587216054873772e-01,-1.486117317480583067e-01,-1.278623353680520547e-01,1.209836327433404801e-01,1.682761373675990546e-01,1.409615123651108692e-01,-2.199094922557224413e-02,-4.134130556790117234e-02,-2.713638028860839921e-02
-1.612724964932817917e+00,-1.606775856658207990e+00,-1.545310693979292660e+00,6.973771090995175559e-01,6.904482267186867750e-01,5.996617274616846682e-01,-1.235121854041081879e-01,-1.105670046523000161e-01,-6.392164917222371845e-02,3.396032194339092952e-02,-7.779426584716429664e-03,-5.624602346993839291e-02,7.528640236969408317e-02,8.663686009012756817e-02,8.826557584957780977e-02,-1.107070706786213582e-01,-7.356800661636936356e-02,-5.134026192543009182e-03,1.100791167937039267e-01,7.127867641812975219e-02,-1.315184480327478110e-02,-1.903720315291989040e-01,-1.219295094048166855e-01,-2.880089271881193513e-03,1.538968227913816988e-01,5.804610977989624332e-02,-7.226405229415064357e-02,-3.305883055831918688e-02,1.440256344335009465e-02,7.113335881365655256e-02
-1.304779193158560835e+00,-1.209363613699108386e+00,-1.088013561209893343e+00,3.411111085738970927e-01,2.340777586019009426e-01,1.156105549823333162e-01,-5.221588137234205174e-02,9.392234035631366953e-03,3.280769228132485171e-02,-7.612870579935876458e-02,-1.185710126798272673e-01,-1.209875799818147246e-01,1.062559665167003148e-01,5.006169326055975172e-02,-2.214486533286363218e-02,-2.153322994082908920e-02,2.895405927551815417e-02,7.049511394189267310e-02,3.244187435157949023e-02,-3.624824697551907310e-02,-8.862545211355707386e-02,-1.876216415775303625e-01,-1.163930019533010035e-01,-5.490459410205389412e-02,1.973778815865419589e-01,1.451952284719638109e-01,8.359789073423989914e-02,-3.477926732864353165e-02,1.299912706176585032e-02,7.225956524099516609e-02
-9.929659249900041340e-01,-9.253699448260680471e-01,-8.436153604318874510e-01,-7.327963608161339182e-02,-1.155329474217627050e-01,-1.790055998291685269e-01,7.122504574111623854e-02,-9.873301821034562512e-03,-2.892501159404087252e-02,-1.517296674073978779e-01,-7.420391036092285897e-02,-6.608342653982748893e-02,1.490808036841825002e-01,1.537844286347227196e-01,1.618650990295044112e-01,-2.256798621072610839e-02,-4.681650171476970518e-02,-7.002770528692132956e-02,2.689141905700199314e-02,-8.397237556579128376e-03,-9.985274043718430498e-03,-8.289559613312595665e-02,-6.246482733126740988e-02,-7.075599065171017665e-02,1.869975090203158247e-02,3.323819837607436267e-02,5.922720242488910269e-02,5.773550146320370613e-02,5.581396143101682167e-02,4.746042625990975344e-02
-1.645551987842758024e+00,-1.637741234529879186e+00,-1.620019521470799306e+00,7.787920337827932693e-01,7.395878319127981992e-01,6.791245271853297849e-01,-1.421872997280736461e-01,-1.204634829580905064e-01,-7.094703692513980309e-02,-8.232808349737363862e-02,-8.024766130074401094e-02,-8.939394638040802643e-02,1.744716311338696535e-01,2.061643103233150587e-01,2.135906720521156266e-01,-1.210320287744137135e-01,-1.481813141735020545e-01,-1.606197617928793175e-01,2.989475959702692434e-02,5.868334246421432615e-02,9.075166172548164434e-02,-1.531634309293096741e-01,-2.239380491634002657e-01,-2.842625952746029028e-01,1.653911887788764301e-01,2.368297306251402612e-01,3.009721031661706792e-01,-4.001726933747876483e-03,-3.045030913175100773e-02,-5.900514130407194524e-02
-1.538972050692863247e+00,-1.507785578604371235e+00,-1.445162502053045861e+00,6.602267903980948427e-01,5.992861575818706488e-01,4.889189440055148328e-01,-2.575226682855348836e-01,-2.206794117870226335e-01,-1.537573947301842103e-01,6.762739340347413697e-02,7.247043090876287286e-02,5.724816970723910908e-02,4.173335140197194371e-02,-9.448438140238168276e-03,-4.299203487280407049e-02,5.851950613904244314e-02,1.101128989576281719e-01,1.443408720281718072e-01,6.805624159003095808e-02,5.749776183849028555e-02,4.926245017934922921e-02,-1.883239318679572616e-01,-2.117780683850045143e-01,-2.225836639452806187e-01,5.562377005009398745e-02,9.534050743206855250e-02,1.226978408330807180e-01,3.330493697704057371e-02,1.519448029760350587e-02,2.181715234378550292e-03
-1.610003373115161951e+00,-1.628862380881619165e+00,-1.618406885810960594e+00,6.720447320826454796e-01,6.830563362437105379e-01,6.649029779592078304e-01,-2.421800318990518369e-02,1.111617221380739942e-02,3.214778359167613786e-02,-1.141798921708339909e-01,-1.646416867078150659e-01,-1.874327496893763711e-01,1.295681715204800299e-01,1.666814007653784069e-01,1.771666903074410326e-01,-7.100557582808766921e-02,-7.567117204602727409e-02,-7.106937571592580882e-02,4.828308806661388980e-02,2.654573838453089599e-02,1.472497863120906213e-02,-2.158116948346906483e-01,-2.242190408397792822e-01,-2.266333161558830023e-01,1.393861366657611622e-01,1.908164439759444109e-01,2.190456586404057604e-01,4.622818748207461331e-02,1.539896260040802406e-02,-4.286076661265339136e-03
-1.389230227585131594e+00,-1.369911019548542663e+00,-1.307299804189998804e+00,3.266146074223261753e-01,3.014152870329392941e-01,2.256425296238216138e-01,1.196562355874214723e-01,1.068840187230366556e-01,9.444548492890468550e-02,-1.109421177316302076e-01,-1.022779025594862945e-01,-9.232285058725546445e-02,6.886914793647985755e-02,4.767840210346422497e-02,4.900345296477608137e-02,-6.324000699429170591e-02,-1.827949614239929993e-02,2.371784841728612897e-02,6.904348979122226782e-02,9.373442824073408008e-02,6.010975536077977494e-02,-1.005960868212612963e-01,-1.661448569740733294e-01,-1.586832801558243355e-01,3.591546388960586977e-02,6.503341405487453319e-02,6.291835866755071671e-02,4.406579842924171486e-02,4.200294468816454657e-02,4.257478329845821446e-02
-1.150902002028087789e+00,-1.127441953441178812e+00,-1.084477937091555599e+00,2.519007970713854627e-02,-1.077930717559161082e-02,-4.741753284754452596e-02,1.095903224704546791e-01,1.457116098737030463e-01,1.627716511445714276e-01,2.298312617224995344e-02,4.155617244760457900e-03,-5.016393809760604124e-03,2.833929424842567598e-03,-2.384040031048820230e-02,-5.447450603684338144e-02,-2.688216526232236475e-02,-1.204210901764690873e-02,-7.699499087432076609e-03,1.539718729694638730e-02,2.275129015544633676e-02,3.615531898634635755e-02,-2.811780840542369223e-02,-4.014351267571963922e-02,-5.058289823389310047e-02,1.977800361768549883e-02,2.862525379284566740e-02,3.192569548182279393e-02,1.026359150501787373e-02,1.311834889271003800e-02,1.890427008264818770e-02
-1.361880483690194987e+00,-1.308641216421968956e+00,-1.210971166336065830e+00,4.291204124918722163e-01,3.480207381115953402e-01,2.399446294320513318e-01,-6.534128066023164871e-02,-4.811650460807305463e-02,-6.002735749394129405e-02,-8.908118572388193379e-02,-7.048102972613867756e-02,-3.788435233345453096e-02,8.713931162391777563e-02,7.076426777594278794e-02,6.402063716943856564e-02,-2.511895472418719522e-02,-1.456640478257670637e-02,-9.385000596941863241e-03,1.018283082539351153e-01,1.133885001803360687e-01,9.657020709680796955e-02,-2.523575356454769714e-01,-2.497020944099767881e-01,-2.082948389584448334e-01,2.529908077957782608e-01,2.010013423231246377e-01,1.175797590080304850e-01,-7.717399709204032787e-02,-4.156156347090381176e-02,8.534014833712518650e-03
-1.656304028247101989e+00,-1.663852093904052198e+00,-1.652302662844751691e+00,7.532656696951056663e-01,7.531105889248853602e-01,7.254176154124751807e-01,-1.757265843451063791e-01,-1.726805173974866880e-01,-1.514033343452546032e-01,2.252406779775218554e-02,1.682897765582820962e-02,-8.425698406437668805e-04,1.624846277019884322e-01,1.847267931345578929e-01,1.975889076154989377e-01,-1.490970159727693367e-01,-1.722098659950557498e-01,-1.695497188910641551e-01,7.345787771967023094e-02,1.017204094759532884e-01,1.041707862490762193e-01,-1.122072699141889174e-01,-1.393150723484016529e-01,-1.529027891565286901e-01,1.324343579813286320e-01,1.300160152372442646e-01,1.269659239444714816e-01,-5.056725910469692803e-02,-3.812253400758693761e-02,-2.696281242715501889e-02
-1.306229479640036217e+00,-1.304629873515999350e+00,-1.276275311032048609e+00,2.529349988348539302e-01,2.275904956924363065e-01,1.894155573835988315e-01,5.592875976591455550e-02,8.758853670123852020e-02,9.576162982284085190e-02,-1.142440572218646339e-01,-1.099637108127100998e-01,-7.354567604815019644e-02,1.911083367716768511e-01,1.876197570717063889e-01,1.337419615675289331e-01,-5.418356929175589809e-02,-7.288511986563071809e-02,-4.743464699963294284e-02,2.217666839600710565e-02,1.036567003236384121e-02,-2.115924808161293719e-02,-1.665726776005436172e-01,-1.262106779126515310e-01,-9.459792916813686281e-02,5.001600803903281933e-02,4.741597272655369288e-02,6.806428657105921542e-02,6.919460237815512615e-02,5.320389098886170454e-02,2.609862020416211723e-02
-1.413519354892309288e+00,-1.432352000011535287e+00,-1.427054783316020981e+00,4.270678488437827935e-01,4.288833462974120381e-01,4.087979227407604332e-01,-3.602329706660874903e-02,-2.243643935127008493e-02,-8.973518729365123625e-03,-1.500435904047463798e-01,-1.232026302206218893e-01,-9.421042202771758023e-02,2.847605053123459240e-01,2.620659605915313661e-01,2.183167333159447276e-01,-1.677025617724578477e-01,-1.488042631866735022e-01,-1.114114557338191508e-01,8.403492729103169412e-02,6.325941006548196910e-02,4.398428994419210925e-02,-1.381838504759084485e-01,-1.753438670100532504e-01,-2.109023756063010679e-01,1.124800335482276231e-01,1.588250025915884656e-01,1.976895204530547123e-01,-2.682859495691325338e-03,-1.073091198867941361e-02,-1.610567522200684332e-02
-1.218823825619680390e+00,-1.187936112388343179e+00,-1.142333007357526631e+00,2.524371110829782272e-01,2.154425602505836146e-01,1.654956040705879150e-01,-1.214059597317412170e-01,-1.029667351759229188e-01,-7.909662982355539218e-02,7.891546109246493079e-02,8.552220586928330204e-02,8.525859261439025505e-02,-2.088417380874558679e-02,-3.861605044882397003e-02,-5.459143255470128714e-02,-6.656763999956509525e-02,-7.754642795191282745e-02,-7.224935254019691777e-02,1.673779796627278826e-01,1.725836349108986201e-01,1.518102677235720621e-01,-1.252069557145883416e-01,-8.172662758954003792e-02,-3.112357835807389936e-02,2.287061139640502588e-02,-6.077442024360006634e-02,-1.412766437065509917e-01,3.149812469480463284e-02,7.619638508965129176e-02,1.182510194842375517e-01
-1.481885876365140353e+00,-1.433534422387941820e+00,-1.331575944626463892e+00,5.294714512169224063e-01,4.540667572798651741e-01,3.266789005321542594e-01,-8.610520126287998788e-02,-9.505531276066250812e-02,-1.128208027261184548e-01,-6.779392862896858885e-02,-3.268291479951758449e-02,2.159634584217795181e-02,1.435547290542170673e-01,1.919074242162488453e-01,1.898353000241909116e-01,-9.094147916495444461e-02,-1.705641426704941621e-01,-1.614638401085827235e-01,1.094181397835981145e-01,1.185058454596305821e-01,5.987622556293421133e-02,-1.863398629216000135e-01,-1.076349240798209622e-01,-2.670141362743975663e-02,1.269280791723046420e-01,6.377288241423956228e-02,2.439921960099209960e-02,3.920249896526089260e-03,1.138754681643150066e-02,1.029914930976994630e-02
-1.237863391634124177e+00,-1.165683588288074057e+00,-1.079065579953084830e+00,1.926259019741856093e-01,1.168635246456223575e-01,4.899489830827488679e-02,1.001041473850022290e-01,7.712847313016028827e-02,3.769069850330790394e-02,-8.157296351482233587e-02,-4.506050453751875989e-02,-1.831144399040155954e-02,9.722393278084423551e-02,9.623570971439102117e-02,8.398681904531557496e-02,-1.525063433707936622e-01,-1.522625205025695816e-01,-1.278212262710890779e-01,5.531382056765522803e-02,2.813793775170063405e-02,7.200072660507685074e-03,-4.660413511916611934e-02,-2.128150559178006163e-02,-1.195387789970570741e-02,6.242155149704110145e-02,3.343540752131766297e-02,1.646964926350001635e-02,1.096480769593907723e-02,3.257253022557246580e-02,4.287459336368932422e-02
-1.181686412106235595e+00,-1.164714553617519188e+00,-1.139542319114885904e+00,3.629158391024267516e-02,1.605410604984120262e-02,4.993754285092766657e-03,1.373413483012924652e-01,1.423046013612634664e-01,1.282852427755236113e-01,-1.313241266177013200e-01,-1.430823986819615978e-01,-1.540456141406751633e-01,1.137213152862962262e-01,1.222557171582823177e-01,1.338127668089587330e-01,3.781070369521295077e-02,3.802390195798556471e-02,4.137061517739634708e-02,2.638965332493213925e-02,4.674323411549945184e-02,5.679525859417975525e-02,-7.393154508458339713e-02,-1.088923660631529317e-01,-1.341202069826775700e-01,7.679160150084496372e-02,9.003576130656833210e-02,9.640227654308022864e-02,-4.115771351652667415e-02,-3.851792771019062894e-02,-3.379538649398210193e-02
-1.341100014710855826e+00,-1.341384559730111947e+00,-1.336335144162872579e+00,3.414733517601227786e-01,3.393514843130761016e-01,3.419517356483638970e-01,-1.990846355883095151e-02,-5.668441384774932160e-03,-7.115100045856695248e-03,-2.584220540132062607e-02,-7.107936978462255084e-02,-1.017813105957035696e-01,5.175276328830671208e-02,6.996794897140197478e-02,8.078031568051931288e-02,2.623448100618529580e-02,5.195713704851184778e-02,6.603964247365780305e-02,-3.300716748465031686e-02,-6.514670431960388475e-02,-8.432754531804455278e-02,-7.976917466127700362e-02,-6.926477909211277428e-02,-5.486856143415739379e-02,7.268423941002480348e-02,8.910749341708414095e-02,9.512355266815378241e-02,7.623017491240380132e-03,2.280068486286721506e-03,6.306818639347090520e-04
-1.452436320177763696e+00,-1.453948364986938246e+00,-1.430027109573981381e+00,5.118424648566907154e-01,4.999850546552388475e-01,4.636626555014337070e-01,-1.147068231063144428e-01,-1.104799059849871784e-01,-1.196733933404615785e-01,2.058037081134956800e-02,3.000963373694464156e-02,5.509963380004601757e-02,5.186401890910779383e-02,4.679484044998907799e-02,4.831813782133666940e-02,1.457538587241028263e-02,3.201819225833886506e-02,2.215109712107110607e-02,-7.537682013841079387e-02,-1.040185562746890474e-01,-1.021237843014092816e-01,-4.614844056371519149e-02,-4.629851050861603229e-02,-5.889873922125271610e-02,-1.213827906383624367e-02,2.265312834832423905e-02,5.547707732433161676e-02,1.021747284211977497e-01,8.347032088716906106e-02,6.615680290843981015e-02
-1.106757623233534771e+00,-1.097250507432424582e+00,-1.072000600815334659e+00,1.958325403839181883e-02,3.649174553392017795e-02,5.522763353682106496e-02,2.139128889685052576e-02,7.915701297110234666e-03,-1.379258295700776064e-02,3.133558347560882335e-02,1.765420748638654377e-02,-1.457014801121508420e-02,4.366930816938658505e-02,1.118688631076827922e-02,2.805767600631314026e-03,-8.466525127104279624e-02,-4.631191099420817886e-02,-1.048622043918862566e-02,2.990676449885034879e-02,1.552552569540780435e-02,-7.733987767299831638e-03,1.287156910252104831e-02,-5.459609537251952378e-05,-9.948875577368959319e-03,4.019936259291417846e-02,5.941928703246358856e-02,7.362208554220048273e-02,-7.290877402302354052e-03,-4.364751453558665499e-03,-2.953639887215380247e-03
-1.425402335270293142e+00,-1.399237012524017887e+00,-1.349464495217640669e+00,4.449247812591414220e-01,3.777072758700024679e-01,2.919466258453392582e-01,6.313096309142658680e-02,8.873467050847562432e-02,1.078974951572310714e-01,-1.292404553790675592e-01,-1.241325285650299037e-01,-1.111509369665259900e-01,8.764773646224136017e-02,1.009385348241430974e-01,1.138314269740828139e-01,-8.219906336271756708e-02,-8.799708048057737486e-02,-9.664498461393938866e-02,1.038803938829064438e-01,7.402349625498799712e-02,4.144350054415688739e-02,-1.893581718831766902e-01,-1.368105613315755420e-01,-7.800731790885091776e-02,1.935920704824277694e-01,1.605614788354992051e-01,1.181426759127604947e-01,-6.687341483791672814e-02,-5.370252664902914336e-02,-3.792618034573318891e-02
-1.348119515689327530e+00,-1.330122149531351550e+00,-1.282091305190204311e+00,3.177525872696399523e-01,3.003739557622405743e-01,2.427427512107342422e-01,-1.274985160919563099e-02,-1.163131945882327732e-02,1.359159189267293393e-02,-2.533859097335693783e-02,-4.417489055450432578e-02,-7.840757842352251428e-02,8.234262361017206933e-02,6.020347383007176867e-02,3.451652358852940611e-02,-8.775910715712098575e-02,-3.994733884514984484e-02,1.370006139844083884e-02,1.616809945018497230e-01,1.639939035997536043e-01,1.431678247478425925e-01,-1.771717209821656869e-01,-2.069488623864357002e-01,-1.922114941605114202e-01,6.280255076680993365e-02,1.069748507476421945e-01,1.160263524209738106e-01,2.673463022609218198e-02,1.417570245233465854e-03,-1.092974154399481077e-02
-1.401140504753002114e+00,-1.389618210868894144e+00,-1.342345606393171353e+00,3.952302555381480009e-01,3.925325271376520764e-01,3.713872491891310190e-01,4.365007892436024127e-03,-3.111797462886104620e-02,-1.072574027743843639e-01,-1.621969534932600765e-01,-1.518270299218197339e-01,-8.893308301167182628e-02,1.766957354188304352e-01,2.036772115549956852e-01,1.865115430383187944e-01,2.761131856729805503e-02,2.007058292680014705e-03,-9.817483527278490080e-03,-2.404792938247787490e-02,-2.904628866070022800e-03,-4.088052735035970463e-03,-1.790289116102210809e-01,-1.665980107219577344e-01,-1.088228159344258594e-01,2.398950558106368314e-01,2.068059172813296875e-01,1.452382106118693117e-01,-7.718178397351223297e-02,-6.279772899767771532e-02,-4.175242905586633996e-02
-1.454086959652168387e+00,-1.444989269626868689e+00,-1.419556886237605564e+00,4.432362120210421863e-01,4.437629164145751592e-01,4.375009665696667494e-01,-1.290935420744389155e-02,-3.828091084021423285e-02,-6.476117128299094250e-02,5.779990717481709589e-02,5.201566836302448649e-02,2.775065363399363202e-02,-3.666409048081235855e-02,-1.949450709540941074e-02,1.397721713838503054e-03,-4.046023523513019721e-02,-4.560016618998249949e-02,-3.984263208603526507e-02,7.043436449313805747e-02,9.406819322072765277e-02,1.071686759201472133e-01,-1.224868059471788916e-02,-6.311611444192227749e-02,-1.051960557960371773e-01,-7.319049017534114132e-03,4.634369289258543495e-02,9.181728774789407743e-02,-7.598553831975280413e-03,-2.457469588907450903e-02,-3.617815852837216045e-02
-9.644319629518843806e-01,-9.277102220546113998e-01,-8.915697430057224482e-01,-7.572786625584602971e-02,-7.912755321222836313e-02,-8.309100266805241608e-02,-1.492604962678497835e-02,-4.265880750269655797e-02,-6.210731923134355653e-02,-7.074600591485952217e-02,-6.933684471599825538e-02,-7.885039602871396491e-02,-4.096359942991851209e-03,-2.623367638249966480e-02,-1.347858782201141400e-02,1.294406295945791652e-01,1.305029099851113261e-01,8.870698519717266917e-02,-7.969619251823786485e-03,4.088466572756873849e-03,2.395755563291001797e-02,-1.273839969206521650e-01,-1.372060927245871420e-01,-1.250053463670138809e-01,-1.198564362453691245e-03,1.291838270873868488e-02,1.308546897571409573e-02,1.372154338748675373e-01,1.349085737863813805e-01,1.284586759566797298e-01
-1.153698339857710531e+00,-1.126557246213559127e+00,-1.097394181064204277e+00,3.697078529659491436e-02,1.169406254491729864e-02,-1.088640182614812081e-02,1.145983259172161234e-01,9.638424499262124301e-02,7.824551907271337647e-02,-1.492070517818719355e-01,-1.241298134846425122e-01,-1.007401776700756618e-01,1.895580081635508674e-01,1.980272003661351643e-01,1.984494629529131304e-01,9.633562042967706851e-02,6.566940467899406997e-02,3.409269177205781487e-02,-1.298095708710665097e-01,-9.451545984222610441e-02,-6.047698690645422065e-02,-1.205552646805728018e-01,-1.531616194784225782e-01,-1.741190982127590048e-01,1.378151412616732963e-01,1.381977511078974485e-01,1.287060585495030107e-01,-2.178210161469259359e-02,-1.141953942905380923e-02,4.281213585156267050e-03
-1.142312339573623214e+00,-1.115383069265959426e+00,-1.079512659884709791e+00,-2.780644371127204487e-02,-4.568129977995889074e-02,-4.559976250181710378e-02,1.536579933845564350e-01,1.539934826898947673e-01,1.146885142175241151e-01,-9.226901740484315384e-02,-1.039471012659335669e-01,-1.166207529229497941e-01,-4.792891243572163645e-02,-3.629738396978508114e-02,-5.951346275574597583e-03,1.508566110883510780e-01,1.206468398628390420e-01,8.879257930805420362e-02,7.446737586720506008e-02,6.945393564237929696e-02,4.629144257208590851e-02,-1.065518995919066264e-01,-5.932663629108657355e-02,9.365948842416033440e-03,5.796103314812649232e-02,2.377584343136151385e-02,-1.259395291951556119e-02,-1.954272928743867183e-02,-6.740785170542174139e-03,1.499983996564611954e-03
-1.408318898720543721e+00,-1.396754160977788928e+00,-1.370449999699658639e+00,3.944705243375656867e-01,3.757661803885095630e-01,3.409965717264861196e-01,-5.396040445328880580e-02,-5.660555829139386763e-02,-4.464170314119740579e-02,5.651238286257985466e-02,4.769112158955018943e-02,1.360610959845036730e-02,-3.800716941628391743e-02,-2.498490182904718540e-02,6.997621479755814812e-03,9.313795924008845539e-02,1.010747684704538379e-01,9.345163172477778668e-02,-3.527306730803873858e-02,-2.977655041820585075e-02,-2.016783434134442748e-02,-1.158167416457777654e-01,-1.537047124277829691e-01,-1.801181999892845775e-01,1.600374927647156276e-01,1.943946995598270222e-01,2.088639448751201111e-01,-5.254407030414658120e-02,-5.691764212883634183e-02,-4.839966311120087045e-02
-1.520360344371158634e+00,-1.497285009612810747e+00,-1.454778648120933271e+00,5.581542250664943694e-01,5.404061214289600512e-01,5.064198325233224551e-01,-3.222493169764326093e-02,-3.919175040557317663e-02,-5.772891599407760366e-02,-4.390845045268718105e-02,-3.648578652504699815e-02,-1.547337922925114823e-02,2.615029055882209588e-02,1.857927524254361987e-02,1.061339398423327002e-02,-3.064276994177540792e-02,-3.883740689189661005e-02,-4.205732233302866135e-02,3.208886484962095165e-02,3.086618332768205700e-02,1.252318844694935707e-02,-6.388167563352022127e-02,-5.089865364811729798e-02,-3.330730130817596141e-02,7.855112512640732847e-02,6.568066973227322525e-02,5.396331876164996155e-02,-3.526283451915056873e-03,7.531239674500892975e-03,2.010925401003497634e-02
-8.702512114526934628e-01,-8.297033779639545470e-01,-7.947844727334457682e-01,-1.046166927818518305e-01,-9.972658992392892385e-02,-1.005609082247418407e-01,1.300892279419488436e-02,-3.443587436699802051e-02,-6.452467901789885052e-02,-1.665393510239426555e-01,-1.490565143830017147e-01,-1.282210056825010824e-01,4.652757776238585635e-02,2.005355142165099816e-02,-1.285868259205786516e-03,4.850221097808815607e-02,4.432151816494350055e-02,3.389175554003321517e-02,-2.352611134225087754e-03,2.385399447873873258e-02,5.002963285886075084e-02,-1.419807956425493400e-01,-1.897149004448569765e-01,-2.231152175777718349e-01,1.131283714008355368e-01,1.117615953483701158e-01,1.088440008855221797e-01,6.466518690930492252e-02,1.027230784035087496e-01,1.197930110989083724e-01
-1.058803259465642022e+00,-1.065893884521020629e+00,-1.067102759308149240e+00,5.819294545094949589e-02,8.873839164140376323e-02,1.188184748985294664e-01,2.038117260682859033e-02,-1.644341599081755589e-02,-5.706616028215149433e-02,-1.251958972412550442e-01,-1.126732161258953285e-01,-9.179537426144551704e-02,1.076429007930654880e-01,9.912616337857430016e-02,8.167753358126723928e-02,-3.599628008448779032e-02,-5.539993894815902625e-02,-5.892074762361013129e-02,2.963833952328868981e-02,3.288295193001437161e-02,4.637807321516874970e-02,-1.969443345223137742e-01,-1.061816918515429836e-01,-5.376261304192676144e-02,1.871364671633643784e-01,1.423798749111178374e-01,9.253808578294266118e-02,1.403022617387914353e-02,-6.467229445541386457e-03,-1.070510788087801132e-02
