-1.686426242296204636e+00,-1.694303863582292236e+00,-1.644307071019968314e+00,8.021831389759586095e-01,7.954218756510755828e-01,7.002769184134628455e-01,-1.972930435865658527e-01,-1.858820883000898427e-01,-1.298681894797048264e-01,-8.964097904776091585e-02,-8.668517212508089487e-02,-8.472373959954487832e-02,3.196862317976522649e-01,3.119183615369460760e-01,2.601680102230789493e-01,-6.558089720126952793e-02,-2.938744731272451352e-02,1.238214115920213340e-02,-7.524958167296003086e-02,-1.252400856650389693e-01,-1.285640039628036524e-01,-1.866261007828000085e-01,-1.684475915100439591e-01,-1.480783512783137856e-01,1.701603593957098925e-01,1.706729286872100126e-01,1.375575452813372068e-01,4.275345755045687618e-02,5.797078281795268323e-02,9.043114112205011268e-02,1.138751455665290742e-02,-1.262872011416230587e-02,-6.167919034978463361e-02,-5.395958602403948950e-02,-3.211595906033221093e-02,7.490441682740525166e-03,8.240942635628106805e-02,9.061100375352010294e-02,7.151868418300325048e-02,-1.101791951271308273e-01,-1.503780987707269423e-01,-1.062661003032236984e-01,5.576317511505035629e-02,7.978266143246640074e-02,1.746652170933429837e-02,-6.034615328297306125e-02,-7.085219000309987691e-02,-4.150406652697784943e-02,7.893478068842732509e-03,2.791688547970766140e-02,2.781135636593183233e-02,1.286538947818621596e-02,-2.833458538639096677e-02,-4.469207795649242365e-02,-1.774903665768889915e-02,6.430353858226321717e-02,1.076039980958989062e-01,9.634257755126855727e-02,3.830135853733912694e-03,-5.749271880539127272e-02,-7.915671352790734638e-02,-3.997635631396766198e-02,3.693687472537879237e-03,5.874877898325254338e-02,7.045085034146224279e-02,3.992515138936655189e-02,-9.661139850192675127e-02,-1.165047066984397917e-01,-6.649852275871001583e-02,1.088326503860689298e-01,1.110962500606414161e-01,5.507040998247373503e-02,-1.194274479697198521e-01,-9.495908831739957590e-02,-4.072628198060574550e-02,1.736426883312120195e-01,1.606838048187507195e-01,1.005388500090602932e-01,-1.769068284028518789e-01,-1.779620800843465522e-01,-1.083725682498846848e-01,1.012616185400272012e-01,1.139512614125888640e-01,6.206650527502532294e-02,5.425328353913128065e-03,-3.410130903261645446e-02,-2.024313300574265631e-02,-3.392423213515752267e-02,-1.061648234799746765e-02,-1.078964199593758326e-02,2.476408041048884456e+00,1.118531593691147386e+01,2.510022048964944474e+01
-1.187349464392128962e+00,-1.119958085995743868e+00,-1.040958955281813481e+00,2.769655566424772952e-01,2.156719809388507880e-01,1.513286690927900802e-01,-1.045668224636096544e-01,-1.022822263202477905e-01,-1.117087139502108972e-01,9.075221350081876318e-03,-1.507511498777081363e-02,-1.592463239203460723e-02,3.420116697557308572e-02,2.518241832071135486e-02,-2.664135163584272978e-02,-8.400363706890254245e-02,-7.730655413963256894e-02,-3.473591276235152986e-02,1.355385785319876413e-01,1.145884476024653792e-01,7.668493937523569726e-02,-1.815357083954395878e-01,-1.238371829026766596e-01,-7.345478049469156279e-02,7.208867600130902664e-02,2.853713383832153644e-02,2.791110710457481332e-03,5.272009461925155488e-02,7.504200094311266889e-02,7.511018814419370693e-02,-1.783501989162343537e-02,4.877307662312281729e-04,3.028580020961705796e-02,-6.011682485271955395e-02,-7.629612290562794163e-02,-7.366421375318726872e-02,5.475933735839273037e-02,4.937119571979986521e-02,1.646861444079832093e-02,1.743966255764900150e-02,6.689912901500486356e-03,2.290185671470697584e-02,5.933580269714845874e-03,2.697380877888365391e-03,-2.584173088830242493e-02,-7.279939470873336704e-02,-4.984379058291907305e-02,-1.519355397232744452e-02,4.310751302863072981e-02,4.359859622013966679e-02,5.094595175273172738e-02,-1.076807068390834600e-02,5.595985466210623427e-05,-6.010560041161659012e-03,2.545534194652244314e-02,1.226994073186868199e-02,2.352640432097787698e-02,-5.433839655084264642e-02,-5.675502239233089913e-02,-6.825895004184331927e-02,1.661408069844947169e-02,2.896248320768278484e-02,3.233981787556178267e-02,3.592259759900125887e-02,8.987668296054886208e-03,-8.758756613505504565e-03,9.109904561833649314e-04,2.235011459718597507e-02,2.765656192450133624e-02,-3.823738354269286960e-02,-2.155968725209517559e-02,-3.189300399542980245e-03,-2.401331389031868824e-02,-3.523516719002407760e-02,-3.208962150614262654e-02,8.012789528713573639e-02,5.781717629174002587e-02,1.831518865128266629e-02,3.416507904960065269e-03,-1.533810457809542047e-02,3.180667656966831500e-03,-3.081918191462440157e-02,-1.875929348541371250e-04,-6.981403034041037958e-04,-4.947434975749475522e-02,-5.344681402108321377e-02,-4.028284644235994444e-02,5.171646615029362043e-02,5.493034402101739516e-02,4.598320875430104981e-02,2.295760266930580329e+00,1.095829044959856446e+01,2.641634579945321448e+01
-1.325745314245222684e+00,-1.327472765512092590e+00,-1.293295734902399241e+00,2.047978479801002838e-01,2.406417321589563729e-01,2.537801759293302761e-01,8.406229802334090617e-02,4.907260638548118642e-02,-7.276234799612403548e-03,-1.620446594352094316e-01,-1.385827078622760000e-01,-8.375646185291164836e-02,2.732438314206277474e-01,2.351117955161527440e-01,1.699170404608649765e-01,-6.287356160908974534e-03,-2.774478623796872850e-02,-5.538784959144405634e-02,-9.733090310440925541e-02,-4.817565601248692542e-02,7.207218770236127961e-03,7.235385692376553046e-02,3.922342905272067914e-02,-6.018372074105566433e-03,1.811782644634678252e-02,3.679624093927513079e-02,7.252494573331061400e-02,-3.201503652292760765e-02,-3.676142159979996216e-02,-6.247576553120457593e-02,-1.049909792651492063e-01,-1.307781347750828771e-01,-9.427391069138660318e-02,-5.232858636721231249e-02,2.104665411879667880e-02,3.353364413299910612e-02,1.223719402678681151e-01,8.182955840139649606e-02,4.167435527059831779e-02,9.871247406836413177e-03,1.123686568172716817e-02,4.755708178144133630e-02,-2.936179775681898793e-02,-5.272718076947566918e-02,-8.831597909085744935e-02,-8.531609765586571636e-02,-7.717297790786546707e-02,-7.007262883007796261e-02,-2.078224672347643749e-03,2.784533627010510326e-02,5.390334065318651974e-02,1.539843372351226980e-01,1.047844211202768744e-01,6.345691024653168921e-02,3.842468548638171277e-02,7.808050439054628478e-02,8.931371782891303623e-02,-4.378408081747131933e-03,-3.361665823494028836e-03,3.219077175075669116e-03,-9.004283269076245044e-02,-1.251046705603256481e-01,-1.236946972845331255e-01,4.979616995665790691e-02,1.049106663832832104e-01,1.234861596133773332e-01,-1.487880421657288184e-02,-3.142265346275480847e-02,-3.230704811636581769e-02,-7.513985407005266404e-02,-7.781414030300165541e-02,-4.808213977254095772e-02,2.572069027047978185e-02,1.526454845884498042e-02,-4.334453809020257647e-02,2.148500380135451651e-02,3.765897547453285650e-03,2.255900212255826723e-02,6.954396067282228588e-02,8.735218374669308228e-02,8.521821937000448322e-02,6.793019721030691717e-03,5.065479274795649245e-04,-1.939825911778656625e-02,-3.606168047799314380e-02,-1.758037318941151061e-02,-4.843872723917660994e-03,-3.238972361732689320e-02,-4.263310547453146720e-02,-3.469779812462427809e-02,1.570194703682747273e+00,7.408090311340977507e+00,1.758343818596262054e+01
-1.312929795432326241e+00,-1.074282063946796040e+00,-9.233963389067401106e-01,2.616633576640933212e-01,-7.796726403929055138e-02,-2.000355872887610853e-01,9.864125496033762652e-02,1.605130807729552300e-01,9.963130191281557857e-02,-9.323747977212075433e-02,-2.545352322998807246e-03,4.882148432421890005e-02,1.135655171791539499e-02,-7.848215709059450096e-02,-8.765782428683988048e-02,5.399356113907290838e-02,2.770091219981197020e-02,-1.499056828447582930e-02,3.760673232405947752e-03,8.826869956947111517e-02,8.072472640172960456e-02,-1.182006082877945646e-01,6.115905642318489668e-03,9.776596450785884906e-02,2.141306368595187748e-01,-9.128267759837166428e-02,-1.981558898514873546e-01,-1.806202447751275586e-01,-2.201199866231226196e-02,-4.898523348842203284e-04,-3.504352386955086884e-02,1.637434286208034120e-02,6.590825083408402563e-02,8.319638695832497211e-02,-2.780267319597633929e-02,-5.090718147740896232e-02,-3.482399236392488134e-02,2.648085501989804955e-02,3.489248929024971885e-02,6.642556907793953358e-02,1.098694401726048736e-01,1.189492543932621771e-01,9.197510761416169411e-02,-6.810150019915462566e-03,-4.717930904882060295e-02,-2.458360594409808864e-01,-8.509238650505902835e-02,-1.301490324452218156e-02,6.485400215682318725e-02,-1.192468677018280465e-01,-1.872841567467539714e-01,1.350845033747235802e-01,1.712165200458816150e-01,1.324916715507440945e-01,-1.472663417572514857e-02,6.209590165914887633e-02,1.032231227122543532e-01,-8.813572630901911342e-02,-1.557224411278300136e-01,-1.076412301325816445e-01,-4.086537022324008422e-02,5.233280222496301641e-03,1.187578532040051149e-02,4.491932506022741634e-02,8.995328735778200524e-02,7.866013509745740928e-02,5.314840078159137338e-02,-4.184515602004995095e-03,-2.858561406046616210e-02,-8.557932048481854681e-03,-9.811807509082791368e-02,-1.092208061576935979e-01,-1.300869813465896085e-01,1.824289314580552698e-02,1.569265781072884391e-02,1.702165576619185938e-01,6.688742478299833372e-02,3.589499132506210333e-02,7.201945413458808384e-04,6.617803694334456477e-03,4.257129740120349504e-02,-1.206152465518218475e-01,-2.126866270139683712e-02,3.574076639887270590e-02,3.690502260795327366e-02,-3.642677417646179860e-02,-4.007421997368942196e-02,3.294537658023408838e-02,4.592948349690818138e-02,6.020455867076449780e-03,1.837084894332662310e+00,8.742171885405065623e+00,2.072346918986608344e+01
-1.353071446141274059e+00,-1.320347921233470334e+00,-1.240981130537307520e+00,3.554622219396555982e-01,3.006720975746396407e-01,2.004016360751795789e-01,1.082940431905127059e-02,-2.450511345301316455e-03,5.520907676532703368e-03,-7.968398508210795816e-02,-3.482519284625817946e-02,-2.374737255990084714e-02,8.127166153115153446e-02,7.956456998218756904e-02,8.607196289502352937e-02,-8.885838073510518575e-02,-1.032360243405790190e-01,-1.066198895628358290e-01,7.925644259061752350e-02,5.248087372698953534e-02,2.693089936917837310e-02,-1.130823793291717977e-01,-3.945229790574771717e-02,1.509403949689844433e-02,8.607723075611817265e-02,2.379324195807729081e-02,-3.471149309089234525e-02,-9.729576877144112748e-03,5.327343253089115646e-03,5.635242363364995066e-02,1.467832772224860749e-01,1.598177917500147871e-01,1.073526658210079837e-01,-2.174983232344175343e-01,-1.820877059441393664e-01,-1.135784698287213429e-01,1.218828364074588250e-01,7.259613811693173269e-02,3.914639279137276801e-02,2.292080457834355656e-02,-6.937022395727937552e-03,-5.347580864304382620e-02,-2.086597430465563646e-02,2.592781411643160436e-02,6.769973056504091646e-02,-2.928536314490076155e-03,-3.297891936116158218e-02,-4.735744783001057112e-02,4.718979751655805188e-03,2.284363146678760823e-02,7.717871124303328327e-03,-6.230995020014550717e-02,-5.663782927500139730e-02,-7.674684020801375572e-03,9.680355608022878089e-02,7.111529229819309184e-02,4.140705319403015228e-02,-1.624695557067718232e-01,-1.206586461133977578e-01,-9.171329883368545266e-02,5.227128164541978983e-02,4.867149031942271525e-02,4.627297093672237682e-02,8.402112283526845526e-02,6.294747418409675499e-02,3.432453712844635296e-02,-2.106818761955109309e-02,-1.393051311232037376e-02,-4.904342609467178017e-03,-2.937948188702092789e-02,-5.939919501224798226e-02,-6.919982062607688000e-02,2.669816548384338836e-02,7.127032788593751222e-02,8.204338830876851951e-02,6.240255209114556334e-02,5.175073137484269281e-02,3.518810117402767362e-02,-5.133446087971078875e-02,-5.456700877370598834e-02,-3.992564667837120856e-02,-3.614543320444807417e-02,-4.267660603430711158e-02,-3.520297916715968423e-02,-4.432781114500135289e-02,-3.367365644474039355e-02,-3.164581377691073893e-02,6.151208165723836413e-02,5.520934775260823157e-02,4.932708619769887726e-02,1.621947848999693909e+00,7.807007708434849924e+00,1.891296881436947075e+01
-1.232080560858107132e+00,-1.166098874117236228e+00,-1.081854523363179332e+00,2.075833419873493735e-01,1.368609977906064812e-01,6.658179836586390621e-02,6.639366406639181373e-02,4.579407114338077817e-02,1.345408227516003453e-02,-5.633532634472419171e-02,-2.778576638737321330e-02,-5.997637492744668959e-03,7.832832787500203231e-02,8.107467245300555014e-02,6.821053787106912125e-02,-1.315622178846225232e-01,-1.321362583370663812e-01,-1.093798261695504981e-01,3.524755609370705534e-02,1.131881363105197505e-02,-2.063429601174441262e-03,-4.511322327958600109e-02,-1.106541870314389081e-02,-9.315237497454414766e-04,5.528547398685115799e-02,2.733731399042794302e-02,1.337458728419320918e-02,2.733731919822356832e-02,2.333324862865308880e-02,9.433699189812854921e-03,8.866486359669936701e-02,7.884158066842245072e-02,5.830663045508624465e-02,-1.708652548291780260e-01,-1.159517179375397083e-01,-4.299434859476711224e-02,1.333618889440347788e-01,1.006299192845491047e-01,5.947093188694401594e-02,-1.306532813596597044e-02,-1.905440210486528119e-02,-2.086314531242327436e-02,-3.391009145708466510e-02,-4.259587838649658148e-02,-4.951135400980384571e-02,1.524135244720410676e-02,4.413231755237943810e-02,4.907280929540366876e-02,-8.142679530063291760e-02,-8.470813069355255520e-02,-6.284596826910351930e-02,5.087369284260659374e-02,5.121500070885793426e-02,5.626464736555795293e-02,-1.083420607986365219e-01,-7.756297985194891831e-02,-5.917403403438359355e-02,1.374326774034705101e-01,9.505560662918766113e-02,6.562305745644540778e-02,-5.073903755131139309e-02,-5.456465860864865430e-02,-7.318147949925114804e-02,1.087641141286256261e-02,3.574298948601513370e-02,5.524096933487759875e-02,-4.827875179265591482e-02,-6.774332553328896167e-02,-6.038867930859415784e-02,3.453274466194118653e-02,3.568494600285868068e-02,2.532530876304155132e-02,-5.532487829864372875e-02,-4.519586366107428144e-02,-3.472980501949129994e-02,1.054214595663030413e-01,9.458891102857709676e-02,7.663850188147112996e-02,-1.390999786255793687e-02,-2.100479195933497786e-02,-2.933425815769846387e-02,4.655577744004488205e-02,5.693786667441605442e-02,6.715604589376188149e-02,-1.052578218479179317e-01,-7.554516444567654920e-02,-4.024050087078449855e-02,5.322053840559409776e-02,2.257144955679906903e-02,-1.058954129313442218e-02,2.426347483377718994e+00,1.108782221123986389e+01,2.602314259085265036e+01
-1.093467175651267942e+00,-1.093694355375496974e+00,-1.083190245073178071e+00,1.008008351580860357e-01,1.044097687515364858e-01,1.127265210323776246e-01,3.474532931360298227e-02,4.175121391680593208e-02,3.267594614967174460e-02,-7.197271437808880346e-02,-9.146065719948054396e-02,-9.276184235017249924e-02,2.503099780851601383e-02,3.586140786709752365e-02,3.396161544384482256e-02,3.252819694540601270e-02,2.231308434243907748e-02,1.015135661124739325e-02,-7.175035757883223286e-02,-6.470798085864563898e-02,-4.730167998722958206e-02,7.511452275239287324e-02,6.599896550282254026e-02,4.011584041698564029e-02,-6.129665691775324637e-02,-6.303813459719180556e-02,-5.483773317117564272e-02,8.252894430226404010e-02,9.742854181151153203e-02,1.061741144395361436e-01,-3.068859237618888625e-02,-2.936887449029447136e-02,-2.656923804218637095e-02,-5.209881238762423261e-02,-6.189370910761834987e-02,-7.645081686598520498e-02,4.752027519474929032e-03,2.381457540903168107e-02,4.574548628214075707e-02,7.637338745057954681e-02,7.075296720018023344e-02,5.801707470365916747e-02,-8.941266779403171661e-02,-1.031156583794517051e-01,-1.057494647621492201e-01,2.431500349137039052e-02,4.251290417605394639e-02,6.377375647042643481e-02,-1.359331255413518368e-02,-6.647183924434267935e-03,-6.120518190896322326e-03,-7.870046112792968007e-03,-1.785565192154028175e-02,-2.862524836421365820e-02,1.788214594902529445e-02,1.229192542638826019e-02,1.015706371751104974e-02,-2.650039384738580792e-02,-5.096028190969659200e-02,-7.555602233771700760e-02,-4.039677932946676014e-02,-1.824691072809425663e-02,7.597319511084370952e-03,4.814147995815168390e-02,5.396428592559959769e-02,5.816969918201016915e-02,1.664551671214018966e-02,-6.336027647285441544e-03,-3.948063192508726588e-02,1.999249446845426451e-02,4.890623061025897722e-02,7.637260665254635983e-02,-8.344615403636879234e-04,-2.889865344535494721e-02,-5.232572014567132834e-02,3.220097203830533245e-02,3.169341224697666548e-02,3.145789106319023948e-02,-4.549993222467434151e-02,-6.262421881715978661e-03,3.319988487056162868e-02,3.464279462540151983e-02,7.342503700141679232e-03,-2.005394895831353469e-02,-3.789274329968156385e-02,-4.162372487479937266e-02,-4.315376814282628759e-02,1.783814073759395699e-02,2.529843238449737408e-02,3.206140011820095281e-02,3.025347717943645431e+00,1.382420258969990989e+01,3.256635855792735157e+01
-1.073133746301028424e+00,-1.050860251191837236e+00,-1.000490331506651120e+00,5.498700898150439553e-02,4.990345419434147334e-02,5.549285838513527865e-03,-4.125922233598763866e-02,-4.375433425396459131e-02,-2.467316782731029251e-02,-5.605182428925001986e-02,-9.637091762269058004e-02,-1.379383144123458305e-01,1.425552535060269632e-01,1.702124079861385975e-01,1.709320015538994819e-01,-4.941718460518375322e-02,-2.543958364379413778e-02,1.416310338531953650e-02,3.176211191325180316e-02,-1.753018664665773052e-02,-6.240197400213221002e-02,-9.877021814703179636e-02,-6.522102135620171104e-02,-2.936103250151442592e-02,7.412395297092022606e-02,5.501846907523361141e-02,2.538299390266539335e-02,-5.091815380166948846e-02,-4.390273628397602795e-02,-2.349348024525758916e-02,2.527744900704343226e-02,2.350981156584605256e-02,1.800780254863865171e-02,-5.070495755318694259e-02,-7.186711314924102562e-03,1.663732879540743073e-02,5.441402149390702631e-02,1.233447026262157221e-02,-9.873849708167063265e-04,7.839829585603047546e-02,8.846339759794979996e-02,7.003760106756627690e-02,-4.996558094507191211e-02,-7.089088591077985502e-02,-5.647401630400346317e-02,-1.050644441953615775e-02,-1.230580986558609154e-02,-4.164311229848306067e-02,1.952497405116428511e-02,3.097285507267090454e-02,4.342031276566979403e-02,7.431082110606258839e-02,6.515876328539128848e-02,6.170908110875582969e-02,-4.099170752323686578e-02,-2.281158031057877941e-02,-1.924267381024151805e-02,-1.924868656137543668e-02,-5.647312521089199386e-03,2.044967886871052604e-02,-5.515680880365068234e-02,-7.623028782292709526e-02,-9.280872928842051617e-02,8.313299958108125165e-02,8.560085003022863126e-02,7.016639355676752843e-02,8.612431676977970463e-03,-2.367400053194259127e-02,-2.381600888844737085e-02,-2.879433578539876762e-02,1.020137152698179055e-02,2.314797765554458056e-02,-9.557165827618528675e-02,-8.241742888581717053e-02,-5.875842187559539992e-02,9.198460839388981902e-02,5.173758133268487741e-02,1.456244080695615409e-02,1.065694409934469546e-02,3.603307371714010304e-02,4.911364386219075479e-02,3.733954906637449583e-02,3.609362508049525353e-02,2.714496060830599161e-02,-7.313411327916626015e-02,-7.954025271988826584e-02,-6.060116924936535115e-02,6.700418153647714863e-03,8.680579020759495584e-03,2.388640511131966213e-03,2.582034837403378358e+00,1.217453412088301690e+01,3.019797596433627618e+01
-1.222552786729692587e+00,-1.209137428376453105e+00,-1.178082900757807083e+00,1.922038496216610937e-01,2.123490198458174438e-01,2.296045739365154825e-01,6.903853584775392072e-02,1.339253724953605798e-02,-5.756813150578764943e-02,-1.114238517212361862e-01,-1.158396698188527696e-01,-9.698803621200914604e-02,7.352514672583466970e-02,1.436380847856400522e-01,1.667062844279543210e-01,1.320997712726547889e-03,-6.890432240236128714e-02,-1.103104941618903989e-01,2.243461179833571711e-02,3.065904931583274956e-02,4.524039374011253056e-02,-1.262682344653449917e-01,-9.523870440364426426e-02,-1.005977845443635360e-01,1.584695705375334107e-01,1.355173159096236812e-01,1.384834672291424540e-01,-4.327405419294811512e-02,-4.621680991440450109e-02,-4.714896025236461896e-02,-9.633596620320421244e-03,1.579497116382807750e-02,4.044895338302226251e-02,-1.416926453633348196e-02,-3.839883504003420434e-02,-6.513397376054072541e-02,-6.189341627370690234e-03,1.287843867532646215e-02,4.617921416596722922e-02,1.141029332093872542e-02,3.775451625361951613e-02,1.419219943301959150e-02,9.008911808857644754e-02,6.687006379286732083e-02,8.092354332846943277e-02,-1.198459833775924605e-01,-1.716685333308125561e-01,-2.104861784305873396e-01,-4.451959883314213218e-02,2.386282866454469617e-02,6.918583317320707582e-02,1.481260097356811301e-01,7.138842195703865023e-02,1.335548125484131363e-02,-5.098938278908864835e-02,-7.329090877430536125e-03,1.705417480332335062e-02,-1.806584054680951401e-02,1.480822217621548947e-02,4.200475889795440149e-02,-8.410446288951395344e-02,-1.131308743669563605e-01,-1.175139227512828205e-01,1.703154770237870208e-01,1.576120416161456983e-01,1.304762277176202412e-01,-9.059421617872859267e-02,-9.560968342025782940e-02,-9.216877781572187234e-02,4.766125668860751036e-02,5.532378481493070710e-02,4.762209965068615880e-02,-9.959295630552196521e-02,-1.231227887912202112e-01,-1.309126970338664875e-01,9.352220050095656767e-02,1.251657845637159094e-01,1.475734494336589930e-01,-3.311324741627495738e-02,-1.498289917371292169e-02,-1.477259389766617109e-02,-1.021373773992194020e-02,-6.835687919931655171e-03,1.816076018506142947e-02,-1.160294751213475084e-01,-1.336187803832031007e-01,-1.224900004794296504e-01,1.225400000854488247e-01,1.230851796303063100e-01,9.702711553891586738e-02,1.692112352243417828e+00,8.121994589875228598e+00,2.015734343079627422e+01
-1.326490283843241080e+00,-1.312614065385701023e+00,-1.272493019551029114e+00,2.433257263339431986e-01,2.298065600561165767e-01,1.945781119098610734e-01,4.757312945837420537e-02,6.387441827011311468e-02,8.636297842341882081e-02,4.452848661067232428e-02,2.664303195102978722e-03,-5.681422637568687983e-02,1.825666126846873377e-02,5.357296157168484757e-02,8.778965228280241617e-02,5.988863956019339213e-02,1.162805253989997178e-02,-1.825460504581834578e-02,-1.330488224420969812e-01,-7.554720247628700369e-02,-2.965499884427564431e-02,-7.725537869440905758e-02,-7.350033300626362953e-02,-8.062079604244273834e-02,1.447745180618607019e-01,1.054972227644262600e-01,7.869871592956001471e-02,-9.276920919903886703e-03,-1.258660792573054049e-03,4.309065265803531039e-03,1.494639477464627161e-03,6.677721663851677800e-03,1.188779179448402890e-02,-9.929088694645633872e-02,-1.063504012961225265e-01,-9.141567667363414973e-02,6.506979304849795642e-02,7.637252174921425885e-02,6.403095373996707529e-02,6.233409834144611195e-02,8.108336424757967009e-02,8.676338411253634031e-02,2.326499646308854627e-02,1.021526299833405357e-02,-5.173801995347139353e-03,-1.573924278668522858e-01,-1.714391959068489180e-01,-1.503903528969347536e-01,2.304792578872861403e-02,1.875731134465504282e-02,5.194061967555829544e-03,1.022031293533995494e-01,1.090623041738181948e-01,9.614033899304583186e-02,-9.112226854097198181e-02,-7.618379999422922322e-02,-4.584100465996404639e-02,1.081134680090368588e-01,6.577086287546385357e-02,1.772189164584182103e-02,-1.370606429086260181e-01,-1.045487278301286127e-01,-5.738089539208760664e-02,9.389327786947572474e-02,9.336176601457787938e-02,8.197321871301432861e-02,-7.467163844696990058e-03,-3.318785407302000945e-02,-4.905491639940040560e-02,2.642035491476667913e-02,7.774553762510534594e-02,9.323813614632096847e-02,-1.339449006264236963e-01,-1.557408298534370683e-01,-1.492532232727794284e-01,1.666865752098178888e-01,1.581175069444198944e-01,1.456587835189343261e-01,-5.797661558205235294e-02,-4.581202155109849461e-02,-1.672328861051282367e-02,6.545636890833017585e-02,2.654191668727554770e-02,-2.786168928474883066e-02,-9.106950454218371016e-02,-3.496065537778667714e-02,8.502601887057651547e-03,2.522230756840645322e-02,5.195841093998845688e-04,-1.182357582793700998e-02,1.900941601154956695e+00,8.731712948077726466e+00,2.100228177499453253e+01
-1.714608765240229982e+00,-1.759233980684244969e+00,-1.760966421567579543e+00,8.562226946582738307e-01,8.978702605165599371e-01,8.731758189348957089e-01,-5.824143508080671661e-02,-3.039299543085522554e-02,1.023546642955896861e-02,-2.279555738516693131e-01,-2.749079774712773205e-01,-2.845979979117606584e-01,2.545867889950200191e-01,2.878113202345038979e-01,2.643326522169033299e-01,-1.848812686544247241e-01,-1.891048472244302170e-01,-1.442579237509380718e-01,7.100666122018978177e-02,2.807417654507246910e-02,-2.660368349305919713e-02,-2.467990032387232940e-02,5.461785421433015125e-02,9.886408766784576807e-02,-1.102384698908138658e-02,-7.397703738718215682e-02,-8.173500620186432974e-02,8.335342435117820692e-02,9.798910605496898019e-02,6.739119059361488306e-02,-8.319429583876222778e-02,-6.460442290518386699e-02,-1.727318487855812601e-02,3.892869876595952960e-02,1.858238887823538896e-02,-2.202690092564392119e-02,-5.964127081698190197e-02,-4.348074136789487065e-02,-1.505615209082449002e-02,-6.469181062982403210e-03,-1.999021143965521580e-02,-2.284862295238798691e-02,1.197143553888931344e-01,1.600013573658888300e-01,1.576450719056503580e-01,-5.764575153506971278e-02,-1.173713873618291298e-01,-1.338614103507629605e-01,-4.493618209175162526e-02,-2.332295084303232652e-02,-1.325120639874086126e-02,1.232786368961729384e-01,1.452170476757025652e-01,1.492034488685221594e-01,-6.683694417305797997e-02,-1.178985046091132055e-01,-1.282219928320085800e-01,-3.276895736180950730e-02,3.533247825171531575e-02,4.735494431069522253e-02,2.328192904371954516e-02,-5.410905771195217290e-02,-6.952034657034934784e-02,2.084340418770635681e-02,7.878770116604726093e-02,8.527277170765037995e-02,-1.653244737205875753e-02,-2.407856940170480936e-02,-7.477474703897967270e-03,6.813344143675942322e-02,4.185235117766631513e-02,1.394225395947503235e-02,-9.757718199097564771e-02,-7.505109937513182450e-02,-6.268895285854535204e-02,4.700328961647758097e-02,1.539175243121599854e-02,1.041849843751590371e-02,2.016319435211318470e-02,7.806013423987377686e-02,1.025574129404930590e-01,-1.490967523156888630e-03,-5.551549971549327167e-02,-9.667688065229329553e-02,-1.198393486704956989e-01,-1.005800442760422103e-01,-6.855465705561655798e-02,8.215584449616482321e-02,8.433807438808828272e-02,7.548257497446947406e-02,1.993723188534887392e+00,9.091859487961489350e+00,2.049961659073699138e+01
-1.409067691690359503e+00,-1.423249970418023480e+00,-1.407725051275302786e+00,4.365994473493540751e-01,4.578732897136003621e-01,4.428179175671061452e-01,-9.413689418619186622e-02,-1.034129903519614424e-01,-1.090121281849135565e-01,5.998678155949195567e-02,5.937267608742693992e-02,7.287207854877833513e-02,4.497597297964218976e-02,4.218330689148508394e-02,2.021866599960861488e-02,-7.278484364874331092e-02,-7.188193489128019698e-02,-5.670764170954342709e-02,-1.879658481536880879e-02,-3.457589385962561712e-02,-4.002640355624759172e-02,-4.471065610226626630e-02,4.032814293544043256e-03,1.855134707960404139e-02,8.481736885167809326e-02,4.341124254478363753e-02,2.972440057887757933e-02,8.494710377443150107e-02,8.077031094502121200e-02,6.141157169871513943e-02,-7.045080648392065825e-02,-5.064082048309742623e-02,-2.520903766181997394e-02,-2.645862643561215297e-02,-3.303988276163071641e-02,-3.273279036724254659e-02,-4.230729091174938172e-02,-2.048352959133263075e-03,2.273328729330927403e-02,8.348381608292811118e-02,4.113696327239436262e-02,1.296949087314840099e-02,-3.127806240075597238e-02,-1.941693826993636310e-02,-1.084277024649614105e-02,4.314201384007620294e-02,4.546064225300902595e-02,3.117908408628069367e-02,-2.148658522078157260e-02,-4.503058927216630619e-02,-4.038908676810325227e-02,-2.966686859951970373e-03,3.194457240180456625e-02,4.224302649066551812e-02,-3.019250984820188652e-02,-4.577673736722854408e-02,-4.451557741936064405e-02,2.410603131193965812e-02,2.502470932055649369e-02,1.377656102673094525e-02,1.092623300459183780e-02,-9.620420782052037031e-03,-2.800244919971048990e-02,1.542869677741548137e-02,1.949666488099306705e-02,2.643151697288032703e-02,-5.231722913177903195e-02,-3.903185157479863859e-02,-2.465060126816946348e-02,8.549845315119489197e-02,8.111975246849506549e-02,6.438444856422902152e-02,-9.946014001367532720e-02,-9.203558344781719025e-02,-6.737930881722244136e-02,1.350257813668642032e-02,-6.799405397585433879e-03,-3.522498407220232136e-02,1.232308700961176062e-01,1.283722728722983819e-01,1.306886120496137949e-01,-1.746027831487033388e-01,-1.673059070438027984e-01,-1.343423755230625793e-01,3.258294733462963055e-02,5.943285752568647912e-02,6.274155594827190985e-02,4.803571427504200325e-02,2.443594405419013960e-02,4.161402266647973476e-03,2.089632907554805907e+00,9.335376828609501132e+00,2.143150411436326408e+01
-9.247905701213622320e-01,-9.275922630007813474e-01,-9.335614567993176793e-01,-2.770075662351708518e-02,-1.061498512868500749e-02,1.388872775855952771e-02,-9.940745202307207928e-02,-9.266082016228201212e-02,-8.488675515446351960e-02,5.106320179350101740e-03,9.425423020975662661e-03,8.032681984321089763e-03,6.001615666738149141e-02,4.050993063515057058e-02,2.646860816365435853e-02,4.520699688097740143e-02,4.009706388983590164e-02,3.522762104473509126e-02,-3.693292822115409879e-02,-3.534477669743984335e-02,-3.412419951336378987e-02,1.097510803597437877e-02,2.157935772361806170e-02,3.146772405154314722e-02,-5.431482482130746414e-02,-6.641067985741404278e-02,-7.670032067672331866e-02,2.157619975601399523e-02,3.440723923174789783e-02,4.140001477582065659e-02,-1.246218283581385609e-02,-2.255944796535974683e-02,-3.174170956347479450e-02,4.161006537814342099e-02,3.957156590502872162e-02,3.476190626987299415e-02,-4.097315426889968498e-02,-4.067591551528520338e-02,-3.916107239944779939e-02,1.846334892220384549e-02,1.377488908214317270e-02,1.060789348198756983e-02,-4.045400060192434061e-02,-3.154656858747118681e-02,-2.260751802153583914e-02,-4.105946919780067289e-02,-4.945247376522261817e-02,-5.779466697282797244e-02,1.846639398736200704e-03,3.599926006633569816e-03,9.800227172524810307e-03,2.769776221651834569e-02,2.947779221720782036e-02,2.631638864595936544e-02,2.298066392414743059e-02,9.778631589149187203e-03,-1.286959429540210755e-03,3.250223147362784476e-02,4.261306321654324825e-02,4.594657045778433035e-02,-1.376433544610045426e-02,-1.811000495463361074e-02,-2.233421115885998731e-02,-4.287941647475534968e-02,-3.499126169651938650e-02,-2.561512944236718492e-02,5.341077521448951704e-02,5.550808634909885214e-02,5.827598449870416419e-02,1.336051240986896663e-02,1.689275499103673472e-02,1.798811069577455415e-02,-3.915193603885980256e-02,-5.085067300896940756e-02,-6.419814060542607115e-02,5.007219674989172448e-02,4.474243936824990470e-02,4.480806103956717912e-02,2.095193135780238497e-02,3.728706856630673722e-02,4.841705792830859612e-02,-7.303714863921866030e-02,-7.687166821916611992e-02,-7.886774704336406427e-02,-2.381621761284711397e-02,-3.198394218218711393e-02,-3.424315633062008368e-02,4.511323794157503370e-02,5.052444839762945672e-02,5.381960402700284446e-02,2.688207298133822754e+00,1.242157947905238835e+01,2.935219102262990631e+01
-1.332996165536037614e+00,-1.282401648519249759e+00,-1.191676513972205420e+00,3.143005713485367836e-01,2.702430443423018969e-01,1.874193895884205263e-01,5.100127978481613228e-02,-1.181848277636627330e-02,-4.060346676085714590e-02,-1.270806351795308320e-01,-2.543749770590439732e-02,7.621653119148067215e-03,1.089091243150888955e-01,5.599988193243641416e-02,4.436275611419591286e-02,-6.141109571002194290e-02,-6.449393726130342452e-02,-8.080010880395104012e-02,2.581569133520450129e-02,2.749613187901943714e-02,3.354669946447347284e-02,-5.038495586367031792e-02,-2.695570408415226202e-02,-1.095448462197394675e-02,9.710488251773342905e-02,4.754414412297131021e-02,2.335862255927484768e-02,5.115672977328814680e-02,5.407451300805380529e-02,3.284429577262160116e-02,-4.416221424849927496e-02,-1.000913315795717157e-02,1.608102499696695623e-02,-8.318241567903408851e-02,-6.676787273829004610e-02,-3.834919481705451050e-02,1.315212308343292544e-02,-3.987258793561570397e-02,-7.219307090511639657e-02,7.128707853251035897e-02,1.546319836060375819e-01,2.116133564206799378e-01,1.684005712538457628e-02,-6.580716809257398936e-02,-1.521408157255383364e-01,-1.392837091734449029e-01,-8.711599961544926052e-02,-1.148288241404471152e-02,4.908659670352463061e-02,2.810001134835653572e-02,-9.138111892071289211e-03,1.066174063455637699e-01,8.730351217848249246e-02,8.435870755097074625e-02,-8.353312950021364591e-02,-3.861401118215190137e-02,-8.080410909226178398e-03,-1.196695627587156252e-02,-5.835551761886768884e-02,-1.042248737791033608e-01,3.449318784046768310e-02,6.434963576277472064e-02,9.885045317336094151e-02,3.134345376264241478e-02,8.336883478978663817e-03,-2.229799376355655685e-02,-7.128121608207799165e-02,5.443026211247501377e-03,6.685552465839882108e-02,3.281461409871336277e-02,-6.931331458426810699e-02,-1.168675335805638704e-01,-3.690131215417981336e-02,1.917012503933587797e-02,3.152816912614129358e-02,1.635108007344609343e-02,1.079666300688166165e-02,1.480013477291358161e-02,9.616136439840605732e-02,3.570941166146091722e-02,-1.535533825213066146e-02,-1.042235195169730899e-01,-2.502906949842030951e-02,3.431829441471902220e-02,-1.707325866413206272e-02,-2.804465976315154846e-02,-2.978820302661908809e-02,4.721105918283215186e-02,3.097918919777317009e-02,1.651282576585445805e-02,1.978729511985320766e+00,9.029707937617034830e+00,2.091084140587778251e+01
-9.634881209112120537e-01,-9.056698008522062748e-01,-8.532707875702433276e-01,-8.974742638807171879e-02,-1.031070445496041210e-01,-9.492857725069793473e-02,-4.064296933563475017e-02,-8.931684419173019363e-02,-1.320437840585097500e-01,-2.323245684680518008e-02,-9.614218658004186624e-03,2.077159815289207536e-03,6.723442177377955686e-02,2.171399717402146962e-02,-1.763039636367389612e-02,-3.348456002503322204e-02,-1.103452665900981049e-03,1.137170908800860109e-02,1.081796259708456970e-01,8.946405803225303266e-02,5.625786277432968940e-02,-8.459406645623490650e-02,-5.215548803742606904e-02,-2.363303625460073248e-02,6.782168286127158996e-02,2.368975312670033861e-02,-5.755485044274947712e-03,1.471230693948995943e-02,1.720337430816278740e-02,2.863662650251560388e-02,-2.414782492063810918e-02,-4.819625698296213512e-03,6.954159948804273551e-03,-3.936518466955363227e-02,-2.177560095855232344e-02,-1.101346304543827925e-02,3.624080266265036071e-02,7.058298295149610657e-02,7.730364894136415588e-02,4.134491509843584572e-02,2.512635865453607259e-02,1.631852336994745259e-02,-9.035708035874116112e-03,-3.487377114134238010e-02,-3.559800228391191146e-02,-2.529442274456183970e-02,-8.781554683337444364e-03,-1.810320982418213431e-03,-3.224611853969979597e-02,-6.122962751198150061e-02,-6.958127046676589045e-02,7.587808566882951744e-02,1.031375954421306085e-01,1.201694816012163353e-01,-9.501572813034495427e-03,-3.345693028538444108e-02,-4.684155245776362025e-02,-4.498297954290717687e-02,-1.310471098501208784e-02,1.180100493399816996e-03,-3.389789476087824716e-02,-4.891768629767746790e-02,-5.968091852916804912e-02,-1.644825524265587039e-03,-5.277062279259012861e-02,-6.725234523056981828e-02,5.679954871174536929e-02,7.120197703685858526e-02,4.732294927823978148e-02,3.350767906153109127e-02,4.359940760016590283e-02,4.659188166240030293e-02,-8.289473873227953815e-02,-4.274071793657412827e-02,-6.879140951388747899e-03,2.829666482534273775e-02,1.286858024489936393e-02,5.764428685683067009e-03,1.588174706342715056e-02,1.754642711274317923e-02,-2.760538314186319203e-04,-3.732053968560594681e-02,-3.186805700231891414e-02,-8.764088536151938558e-03,-3.244598431125036986e-02,-5.767096615380247482e-02,-5.281831190908244100e-02,6.217209729184070000e-02,7.693180865123422363e-02,6.790690423757154981e-02,2.907459435756133637e+00,1.337949266092042322e+01,3.073572728936213849e+01
-1.313849327576215087e+00,-1.302823823593835639e+00,-1.256468540308521398e+00,3.507539449580185376e-01,3.333220816864577718e-01,2.790713079448400302e-01,-1.073796063597937805e-01,-1.024633915736032214e-01,-9.834164667581635211e-02,-6.217046568462127748e-02,-6.215902501964529203e-02,-3.247546579993958876e-02,1.339690691998335903e-01,1.298842601649274064e-01,9.499360497166724204e-02,-2.320215433773182082e-02,1.972842867547022760e-02,5.511378100738591884e-02,1.005587287299418708e-01,5.980133162187300372e-02,3.040919277170275534e-02,-1.667777979449868997e-01,-1.549324528438900395e-01,-1.511582122260808070e-01,1.113837743611122005e-01,1.017850606807613884e-01,1.135562484206570633e-01,4.219067626683056793e-02,1.882491141823452660e-02,-2.621523812152859456e-02,-2.673312099954745086e-02,-2.325825857392689513e-03,3.317526641403029802e-02,-4.471361896484891268e-02,-4.525582427542142183e-02,-4.866453701929308179e-02,-8.356900673421060674e-03,-2.267219985303844595e-03,-1.267411042791900203e-03,-3.642108573703806834e-02,-6.872348953266017857e-02,-8.153559159439908999e-02,6.857066445126021315e-02,1.068913876172728067e-01,1.163605956992351947e-01,-8.462932176310380972e-02,-8.334957908678004845e-02,-6.351778188879637910e-02,6.197753717010640734e-02,1.519734523244252629e-02,-2.860148231008784875e-02,6.320026614435658892e-03,6.655884325113010924e-02,9.647531767483621956e-02,1.412636052515891388e-02,-3.125892589663182425e-02,-4.137850444979070119e-02,-4.680046624457204901e-02,-3.437385626664388877e-02,-2.756106092447941150e-02,-1.622181877129731664e-02,1.932314543845711080e-02,3.281372615608691562e-02,1.335229202602607190e-02,-4.793430456491204472e-02,-7.552799950894725778e-02,-7.115792593970866886e-02,-4.158950057405390310e-02,-2.108153033341982757e-02,1.116972510673993196e-01,8.942813773084136442e-02,5.453091492743550317e-02,-3.545269241522688852e-02,-9.688863051832939666e-03,2.121524680920756217e-02,1.455446327720268662e-01,1.225913240398078946e-01,8.201502844170836803e-02,-1.710594687526853508e-01,-9.967366106417278881e-02,-2.011458882864896464e-02,7.688135064720290346e-02,4.744140990010595887e-02,6.725319726441044907e-03,-3.977297011093511303e-02,-7.224027660676088369e-02,-7.032487668430470462e-02,1.757039934007642232e-02,3.045332689962091180e-02,2.792737963326975825e-02,2.399307326901717996e+00,1.082525739456610303e+01,2.415399720192437627e+01
-1.141290596883250963e+00,-1.092859343338005829e+00,-1.023790077053053471e+00,6.872601910840436812e-02,9.400063445325221312e-03,-4.172530859664814323e-02,2.004476122974272259e-02,4.617491767800053354e-02,3.468380441191170477e-02,1.508139621573526511e-02,8.137556351421951217e-03,1.034819690110064944e-02,-3.889589275038710103e-02,-7.153839690260616058e-02,-9.310922062044546532e-02,8.863608619136295608e-02,1.409414370704403785e-01,1.745626809910447996e-01,7.053933313605101341e-02,6.941094532528904737e-03,-5.247123905549889999e-02,-1.852755382764475212e-01,-1.748714812052560297e-01,-1.288330928961645139e-01,1.326563959952337945e-01,1.693145125779611515e-01,1.440754115452004824e-01,-3.110341502546171491e-02,-7.314443051146049535e-02,-7.085294440596051624e-02,-6.711599097803634673e-02,-3.467511702941596802e-02,-2.543436243774646610e-02,1.416421833386055304e-02,4.656726552609946612e-02,9.060235894465160089e-02,3.720332968353422948e-02,5.773406100001455925e-03,-3.640095413807308694e-02,1.907121432487329446e-02,1.335171226416778309e-02,2.489359206868933458e-02,1.386110445454773882e-02,3.319064334708780872e-02,3.485350368681821437e-02,-2.638667812305910132e-02,-3.698170839965167489e-02,-5.405849091245039373e-02,-7.890816061089045430e-02,-9.756934714727345803e-02,-8.586374300622259814e-02,1.355362933113508916e-01,1.375282528794454784e-01,1.120238487710257941e-01,-3.231267358614802604e-02,-3.806405997947935604e-02,-3.641863675888739466e-02,-1.483986698485981366e-02,-8.584472578571498980e-03,7.508628886824337753e-03,3.844668327003012212e-03,1.930017648410597628e-02,1.863592948915867784e-02,-1.183836382830218831e-01,-1.235719413955252560e-01,-1.196531135266090673e-01,5.675709991784321645e-02,4.913403521390342227e-02,4.957667200346032449e-02,3.018827606839456085e-02,3.663444216233384398e-02,3.773579671962264126e-02,4.669658702905740699e-02,3.311533691021244230e-02,2.314960797259375466e-02,-2.819686861596260551e-03,2.844510152246645940e-02,5.644302407504012131e-02,-1.274809662444757567e-02,-5.110774893117983435e-03,-1.638180402406851262e-03,5.601773110054295707e-02,1.860030676323513876e-02,-1.026483985709856009e-02,-1.058558671542315227e-02,2.160621271538481353e-02,3.818534182309510361e-02,-4.808160931814771388e-02,-6.694741390914010770e-02,-7.657132968931983086e-02,3.007058431637969598e+00,1.366776205182942761e+01,3.139117989432510214e+01
-1.373533147523910758e+00,-1.401491738490512562e+00,-1.394625259811749896e+00,3.582090817032373420e-01,3.645425938238695540e-01,3.423460107922687290e-01,4.009454356533220104e-02,7.040134754114707460e-02,8.348291545142379200e-02,-1.565943886529503615e-01,-1.508429580954562255e-01,-1.180912518810424278e-01,1.765384505317073305e-01,1.475739324915359141e-01,1.071533623621700321e-01,-6.424614176293823309e-02,-6.231161214932727510e-02,-8.219789224983047038e-02,5.405149177341393024e-02,1.009671734088117140e-01,1.719383028818712023e-01,-1.738309627173960925e-01,-1.989509295626230578e-01,-2.472656269981231281e-01,1.468927247943825898e-01,1.082489651320601431e-01,7.873169187986769901e-02,2.038351268788850430e-03,6.613349906097243380e-02,1.392765916437221640e-01,-3.748227190868746311e-02,-6.204390370115261261e-02,-8.781163667167898867e-02,-1.109933419144828043e-01,-1.440600226017756669e-01,-1.464616203612854328e-01,9.554026423579969896e-02,1.366521203786839056e-01,1.254911297221292243e-01,7.086678427063225483e-02,6.680330558013898579e-02,7.561224208793572432e-02,-4.914896362967569737e-02,-7.210635483689312175e-02,-6.622116403503701398e-02,-7.621618932418548764e-02,-4.797756934693794134e-02,-6.578236759811144363e-02,2.602507748004104920e-02,7.833379163811762455e-03,1.816222338931187258e-02,2.242094280244112670e-01,2.011133639880668955e-01,1.700332761928289860e-01,-1.687466312620639897e-01,-1.311914621661328106e-01,-8.148831236401681000e-02,5.783804529753075463e-02,1.228344607063890787e-02,-3.042759881438151376e-02,-7.667450505692388618e-02,-1.945748558272806725e-02,2.307213445291379089e-02,3.751635007396984800e-02,2.699538379748218919e-02,2.524136529432205456e-02,1.100701582534337544e-02,-1.808114334465975954e-03,-1.341885014248841816e-02,4.155502580174640775e-02,1.283148273755018061e-02,-5.341005890239586273e-02,-2.041247726415921504e-01,-1.884076983016893803e-01,-1.204812297457076992e-01,1.945874966326963384e-01,2.190553278540632864e-01,2.174471333198121359e-01,1.905279305922463057e-02,-2.590811997418247109e-02,-7.385831640022823275e-02,-7.641331358538357155e-02,-4.594106622913633059e-02,-1.299858669831514997e-03,-5.317271691446384674e-03,-8.986382649424605462e-04,2.738125926155072012e-03,1.747835461727997169e-02,1.210556998989888514e-02,2.225233187471945158e-03,1.909978923632015935e+00,8.566848221050230805e+00,1.930645371854016190e+01
-1.506080678250983906e+00,-1.532186757892449736e+00,-1.535871862818882549e+00,5.562746760070409469e-01,5.818419459495028923e-01,5.832493763427792910e-01,-9.208745563079406837e-02,-8.062614218648350706e-02,-7.044520338146813276e-02,-2.800784873368025209e-03,-1.570532283050852379e-02,-2.161686321360786409e-02,6.889960293064192887e-02,6.888234269831371159e-02,6.712901662999226637e-02,-1.199117611091142926e-01,-9.672036362376738861e-02,-7.298525473832273569e-02,1.493934264254806465e-01,1.155261050067171724e-01,7.200696433142658726e-02,-1.451137129652663171e-01,-1.357881006232551091e-01,-1.170891351012155746e-01,1.854254531240851489e-01,1.894946359184894180e-01,1.846541390308278907e-01,-7.111423222955517986e-02,-7.639691244619518928e-02,-6.918318862153553794e-02,2.630086543948472258e-02,1.753058430809604357e-02,-3.256877081499265705e-03,-1.412778258255887320e-01,-1.414695676929085544e-01,-1.168226019801363452e-01,-4.411208288176666353e-02,-5.521334378487166225e-03,1.706367028857649557e-02,2.406442437943362989e-01,2.062759668532888890e-01,1.597929261418934432e-01,-9.749733938627033747e-02,-7.884588033648309846e-02,-5.575503248278177587e-02,-4.000717009355565096e-02,-6.969423451679393477e-02,-9.041856711804309443e-02,4.655018513761564891e-03,5.130153771396590845e-02,8.702058378539602457e-02,8.846417410555024174e-02,6.502806885095313572e-02,4.027340021029394285e-02,-6.890415400796377418e-04,-9.328230507947532849e-03,-9.434471040268338840e-03,-8.900403658934112616e-02,-8.256051643939053830e-02,-7.335574963409460802e-02,1.354982933497683381e-02,1.627436127191018989e-02,2.052303178934005573e-02,4.900652401539982300e-02,4.929281356278309573e-02,3.678380758656642907e-02,-2.152350226057868354e-02,-5.232357155836341034e-02,-6.135858513165762251e-02,-1.937576691217195168e-02,2.619854890605703701e-02,5.283650799391076403e-02,-5.603163217940630020e-02,-8.258152878967008059e-02,-1.059917834029444200e-01,1.381936322452183563e-01,1.466844912970784731e-01,1.514495823207805125e-01,-7.124047098753485963e-02,-6.612388939570749968e-02,-4.850700095170008136e-02,-2.469453716507732238e-02,-2.905942023327980420e-02,-3.825478754792465547e-02,-1.083044869501476742e-02,-2.716734360352760641e-02,-4.550662498438492326e-02,3.276359324605208900e-02,4.791967663432517011e-02,6.319413099658376110e-02,1.958212674889556082e+00,8.782509063884644362e+00,1.966796978941862761e+01
-1.483496603131348790e+00,-1.454661365446350496e+00,-1.376307057140474743e+00,5.636761024647022333e-01,5.209695974294817900e-01,4.206284290245090318e-01,-1.864714924021551035e-01,-1.854919265338701995e-01,-1.647612077453331769e-01,1.093664101160547741e-01,1.221787138094226621e-01,1.151462125558252447e-01,3.025907045095500153e-02,2.185813166320912937e-02,1.863164849656024497e-02,-3.266451604961822380e-02,-5.665524554416247194e-02,-7.715400391056473350e-02,8.455706264046026696e-03,4.584591909858687364e-02,7.469586231965508194e-02,-5.040931980539335028e-02,-2.784986822783645788e-02,-1.509306981391995983e-02,3.553468401748322708e-02,-2.595552120597193965e-02,-3.783739976957047058e-02,1.092242173673293147e-02,6.541494991021300220e-02,6.855272460769611109e-02,-1.531067287773865693e-02,-3.131746205065091132e-02,-1.182733916096167202e-02,-1.960750650717938554e-02,-4.374462120735955056e-02,-7.529667798777908705e-02,1.892141402351674162e-02,5.595554063816911977e-02,7.112272803736079119e-02,2.431553314777251673e-02,1.347070896885721198e-03,-1.510870544527411798e-02,1.706951098856474350e-02,-1.012085357395262758e-02,-7.820151109049735400e-03,-3.185419280242460238e-02,2.929285404328227371e-02,2.858278760317968167e-02,-4.322803911843844937e-02,-1.035656089071456398e-01,-9.484633538582949719e-02,3.240136879931385799e-02,9.555211042478124750e-02,1.092912751033356111e-01,-1.006328137144607733e-02,-2.712377897234650309e-02,-7.277004478027867401e-03,6.586644296313441671e-03,-3.427931894274310193e-02,-9.015466707922516199e-02,-2.168323181529845795e-02,4.313564984702229765e-02,8.942334260615342201e-02,9.618899213758308475e-02,3.445991468155725629e-02,7.080064281551266521e-04,-6.442620874553457722e-02,-9.285729228188337528e-03,3.573565648949523360e-02,-1.916775326365901047e-02,-3.835142905869771274e-02,-6.871667244038327793e-02,1.782932194649658117e-02,-1.784915272601896030e-02,-4.087736877476253611e-02,1.303258837522550465e-02,1.528533784617818435e-02,1.796125592983838920e-02,2.672605683412317135e-02,5.907738676204312561e-02,8.896174095770481571e-02,-1.218560380052265829e-02,-1.089952956239647469e-02,-2.933760141864349275e-02,-8.415889560408006120e-02,-9.042933191074796484e-02,-6.570427991545649271e-02,6.367628068036623734e-02,5.739596496854668800e-02,3.882642534461927530e-02,2.534366559048760514e+00,1.139037150145944111e+01,2.566658834789158306e+01
-1.693341340847708487e+00,-1.660103430703552041e+00,-1.556011245487685768e+00,7.648556693096529857e-01,7.347181177011115061e-01,5.985760891535569783e-01,2.389609706978632064e-02,-2.572490491397239065e-03,-1.348849587873429332e-02,-1.856711016399020253e-01,-1.894096021747345149e-01,-1.299599286777307350e-01,1.714564990005266187e-01,2.200245677699604607e-01,1.822095425338300934e-01,-1.344202911335211914e-01,-1.418797083804213266e-01,-7.907433112453796098e-02,5.711445871424527393e-02,3.245423190434810340e-02,-2.329487207265325613e-02,-1.048860183047022332e-01,-5.655172353505052291e-02,-2.466378726658189496e-02,1.629406199999915983e-01,8.697663625542671750e-02,4.776962073557565469e-02,1.236222487337168552e-02,3.684861290678357465e-02,4.725498635794671970e-02,-1.488649850530649466e-01,-9.802083874328310076e-02,-6.984370265182297810e-02,4.381152551762698688e-02,-8.660357094764273289e-03,-4.594055990353543284e-02,-1.907807040055666675e-02,-4.489777257738263722e-02,-1.769636750572377293e-02,1.003222149877970731e-01,1.922995048347219127e-01,1.927936554856715390e-01,4.735617182180938689e-02,-2.342574438151814875e-02,-5.127653670722141094e-02,-1.876586502978249971e-01,-1.729385190292212493e-01,-1.390415404811244093e-01,3.619096184514531550e-02,4.906797291940782901e-02,4.134468422381622210e-02,2.126685909349010084e-01,1.790604036245348474e-01,1.299688660601625856e-01,-1.996968629412197993e-01,-1.535037260273793003e-01,-8.104937177613687205e-02,4.439945904718275993e-02,-5.244495396011723473e-03,-4.332352510753065961e-02,-5.626114885215852124e-02,2.240154869597185683e-02,3.159734167532624732e-02,1.033425052789254117e-01,-3.414008493070478170e-04,7.646864845318443460e-03,5.014703882250576110e-03,8.899434083729861056e-02,5.586667204589177566e-02,-1.053385894359090691e-01,-1.544496803467596824e-01,-1.130269377920950086e-01,-9.388587871772280380e-02,-5.601105492407242731e-02,-4.311922307107417252e-02,2.086206579437722419e-01,2.231873016483862382e-01,1.457405201625812385e-01,3.373914240362577057e-03,-9.839101940536805480e-02,-3.794975073298183926e-02,-1.721982896855061840e-01,-6.793937505826835865e-02,-6.927378432046561729e-02,1.798854445071956243e-01,1.485459537663113561e-01,1.277738072083536292e-01,-7.618739100276937515e-02,-8.012546429447960084e-02,-7.041260845676534930e-02,2.456933854696257136e+00,1.092241052404083668e+01,2.568345518505417147e+01
-1.626400167216378145e+00,-1.632678082714251078e+00,-1.584934678568492572e+00,6.156172393995739123e-01,6.368774709857856209e-01,5.693861610953708796e-01,2.877826639955882379e-02,1.558202307185086247e-02,4.834918362312394524e-02,6.330953179040857415e-02,3.206087597623586555e-02,-2.455962127785588436e-02,-1.001746146102771434e-01,-5.415656715264473980e-02,1.808256361569001228e-02,-1.823148719748850927e-02,-5.513159280516673894e-02,-1.014302916105539604e-01,1.255732721196862675e-02,5.844007774708654540e-02,9.063287569617778372e-02,-7.278566825961380049e-02,-1.372808495671252182e-01,-1.676306576858634378e-01,1.742920106743099384e-01,2.336577542253420459e-01,2.366558468233373180e-01,-5.209283811151144139e-02,-9.198366678646097139e-02,-8.156948016883663888e-02,-4.291630402837987718e-02,-2.006599709062189749e-02,-1.631242781140478451e-02,-5.988224797981012842e-02,-3.927535743638967819e-02,-1.467162968144093693e-02,5.248655868183713102e-02,1.827984112284584267e-02,-1.941832258834839259e-02,9.928113904739316320e-02,1.141507892578710326e-01,1.271334700108380233e-01,-6.937938234994803222e-02,-9.858622171932468481e-02,-1.194352476329512830e-01,-3.805700556058971840e-02,-2.097346355097656941e-03,2.775252226299393735e-02,-2.231798808571889073e-02,-4.061200143300685433e-02,-5.663312560216712810e-02,8.028063570874995059e-02,8.572004431708668548e-02,8.545153651063608358e-02,-6.241934148842344376e-02,-4.750028113926097612e-02,-1.621246155251484383e-02,5.378092293256798995e-02,2.780362005534949693e-02,-1.695479818172021189e-02,-2.185630557284837239e-03,2.878197714947849928e-02,6.639263746983369019e-02,-5.635541603892686713e-04,-1.572448580302930610e-02,-3.525764175756537777e-02,-7.591316431277909949e-02,-7.517018269423997312e-02,-5.414021308998528265e-02,1.767734234186816300e-01,1.493147338846399774e-01,9.060843995585796118e-02,-1.476144483850242439e-01,-1.167586762971796199e-01,-6.553906234432045619e-02,5.227133842836306082e-02,4.221303363550240467e-02,3.450763816325235628e-02,-3.193117954443269735e-02,-2.556931855147237184e-02,-4.205392465446332328e-02,3.201186177075292932e-02,2.605715856204995906e-02,5.038340442771120642e-02,-7.810814781105501758e-02,-7.275178695112696770e-02,-8.255720065772255423e-02,5.988030507714844908e-02,5.669814875348415384e-02,5.417664109422381385e-02,2.020511917446420558e+00,8.957966807651601471e+00,2.097225913637505812e+01
-1.442560745399404487e+00,-1.469452780194878017e+00,-1.454591896337044110e+00,3.706254088169952388e-01,3.989913766081109592e-01,3.973813123876687725e-01,1.125785399173136747e-01,1.349216217150880914e-01,1.412856900103494073e-01,-1.531943176908161230e-01,-1.688933798794437779e-01,-1.805821646326680185e-01,1.508043048148739185e-01,1.380173836937950704e-01,1.288327008926496986e-01,-4.658769761992298530e-02,-5.397787173242701853e-02,-6.587860669339148934e-02,4.218486663198694336e-02,3.073030669531888470e-02,1.538676200018787403e-02,-1.290934495804087478e-01,-9.611942453355155902e-02,-6.280174073929953305e-02,7.296351487005235670e-02,1.021830163364225580e-01,1.227182963462803839e-01,-1.324943927976668726e-02,-5.272070887927228500e-02,-7.363874703296198476e-02,-3.838986396864711714e-02,-2.880632029495671514e-02,-8.579667492699297182e-03,1.096218991352595172e-02,1.374567700711598617e-02,-6.130251014332378789e-03,9.948357295780327347e-02,3.392035568292955244e-02,3.814812697291759813e-03,2.602569194008777162e-02,9.720602064138857135e-02,9.031061962729512727e-02,-6.542584353393905705e-02,-7.316231280185554742e-02,-1.577276111685999363e-02,-6.097996560243729158e-02,-6.772791082221039927e-02,-9.374810403116716484e-02,9.307457972503811738e-02,7.290745640230039681e-02,5.818666305452968590e-02,1.177489327222745880e-01,1.577129676153211368e-01,1.689562132670775485e-01,-1.596058099956123855e-01,-1.913286552727138379e-01,-1.722044032823109860e-01,3.393733685570923808e-02,7.221458162825164853e-03,-1.306394579753102775e-02,-5.462851158403776719e-02,6.628451032012918839e-03,1.450381182061104453e-02,8.729015382794984637e-03,-1.289196944494321387e-02,-1.182968730931974188e-02,1.022915856993286410e-01,1.121379294693221756e-01,1.143329660365410283e-01,-3.379516410858136866e-02,-8.016690813884799760e-02,-1.178630274165878428e-01,-1.412702022096929133e-01,-1.195936099061242902e-01,-7.350540349998883893e-02,1.239414828697299326e-01,1.433507222047247232e-01,1.229699959114535918e-01,-1.068860398984178006e-01,-1.130397812215228753e-01,-9.166370003398953414e-02,1.423852034026168167e-01,1.529065971900241960e-01,1.297851186309665339e-01,-1.265569210969821612e-01,-1.409670701236699908e-01,-1.234888362809896389e-01,6.467895433362697011e-02,6.641669862066078289e-02,5.698793860406338452e-02,1.523079450948143787e+00,7.245872661368604639e+00,1.733983520483295848e+01
-1.171779709181655305e+00,-1.124659403203836616e+00,-1.060211273694711354e+00,1.226244041335046719e-01,6.379123031261435539e-02,1.513209389814202180e-02,8.259860329028709258e-02,8.761304948577369744e-02,6.741749678708693072e-02,-7.059295743485180519e-02,-7.261425841992551200e-02,-7.538979777624707501e-02,7.205729771895554026e-02,8.573347787714231949e-02,9.289652005804921453e-02,-3.488112337636845028e-02,-5.271089665492693227e-02,-6.843104041305994589e-02,4.213860530918539515e-02,5.597903375791923875e-02,5.180737449920009424e-02,-1.083469871920413469e-01,-1.364635949674495308e-01,-1.277322274720759931e-01,1.051879274692464616e-01,1.175034223327791200e-01,1.193227353617307140e-01,-1.564797541686538743e-02,-1.596723496427315900e-03,-3.865877583735511627e-04,-3.588759290616402170e-02,-4.631949040473939960e-02,-4.607663400940387871e-02,-1.604974928534808401e-02,1.029715769850014263e-02,2.935447489425208403e-02,-1.866123711857754081e-02,-3.629150314040826414e-02,-4.344750472541860503e-02,1.045017070499532214e-01,1.065270786196955838e-01,9.747154121106776925e-02,-1.145158154854184450e-02,-1.197653902777768078e-02,-1.274547171593174398e-02,-1.593625649928790411e-01,-1.436420737149476656e-01,-1.181575205375372389e-01,2.847946973133200915e-02,1.956428651718894809e-02,1.817337513789377829e-02,1.994164394130913953e-01,1.610938263232613021e-01,1.033773819223996193e-01,-1.161523869230068479e-01,-7.272302036709241135e-02,-3.340750474333564063e-02,-5.333816035687425142e-03,-1.604291527802511469e-02,-1.324955070608785888e-02,-8.261700581053441073e-02,-7.095716332877601007e-02,-5.154623767820337016e-02,7.731578800130742279e-02,5.498108085212090324e-02,2.315933751691684472e-02,3.848389241925659343e-02,4.839521703639760447e-02,4.773856012821664496e-02,-1.106285164336661721e-02,-2.726494206042455806e-02,-3.982481026992250317e-02,-1.630613521565299762e-01,-1.289319694457347620e-01,-9.729121778101725015e-02,1.703503624522689774e-01,1.458428077119520161e-01,1.382428284172584065e-01,-6.312811852293050141e-02,-4.557041618986060888e-02,-3.380697859907793451e-02,1.963028013241593581e-02,2.641100554909283846e-04,-5.674766840518874478e-03,-1.016564424977080619e-02,9.664740759042278473e-03,1.241363269221456428e-03,3.151659640125105410e-02,2.062040750399088754e-02,2.213775611796950718e-02,2.666488948898202427e+00,1.218196699214067635e+01,2.788688975997644448e+01
-1.198964479287822016e+00,-1.162013328946504664e+00,-1.111090039986604605e+00,1.562284737882986274e-01,1.185108192239821973e-01,8.408928937241148815e-02,8.776383420584442374e-02,7.278176768175863287e-02,4.067823435706264396e-02,-6.190990937224261081e-02,-3.483227047618664418e-02,-1.031258263688035644e-02,4.131465358197170673e-02,1.821233799345501475e-02,5.346197878442784240e-03,-2.086944243465249649e-02,-1.602620191981018322e-02,-2.189162460071267247e-02,2.111683893710914785e-03,2.122733992575890488e-02,3.895941359691573735e-02,-5.656546791235490118e-02,-5.761621905541977617e-02,-5.664329637459549621e-02,2.744337917731249840e-02,7.169644752823280467e-03,-2.843259313014448019e-03,8.807629889369036902e-02,8.469082824119159025e-02,6.880073029139517626e-02,-3.622997609732705321e-02,-1.825517115950073960e-02,-4.807835776048802363e-03,-3.804120838390206982e-02,-5.171952042456622045e-02,-5.517521533557274288e-02,-4.448603855655360560e-03,5.703090765484903832e-03,1.634836307027144955e-02,2.806435343045941139e-02,1.247253439936708320e-02,-9.735763991151493270e-04,4.646913198795107891e-02,5.503694530458341089e-02,5.151203471751662072e-02,-1.047162282687053581e-01,-1.052061142858669168e-01,-9.363617319244803283e-02,1.154791043089790567e-02,8.752870486124646882e-03,-1.614008065935263001e-03,1.592111333016524022e-01,1.609174443975471269e-01,1.494686406595672479e-01,-9.695120410547035383e-02,-9.025593475261009524e-02,-6.407489837902090313e-02,-7.993667610068261320e-02,-8.119954370718102110e-02,-7.987966463926944594e-02,-1.723341305976274981e-02,-1.272209439604820441e-02,-1.640880818433986324e-02,7.723539060377472565e-02,7.875403867905655941e-02,7.937534790488079417e-02,2.740918728442182095e-02,-3.871363269928921290e-03,-2.563737558781298276e-02,-3.804326539621414455e-02,-1.307244736943175868e-02,3.206088819641267785e-03,-6.926007379058989055e-02,-5.874413235587054583e-02,-5.474006654137049399e-02,1.322047634250842207e-01,9.530937963347001218e-02,6.579765420182791258e-02,-8.234858360634263186e-02,-6.108514110747859105e-02,-3.345269594690387926e-02,2.863336301175130588e-03,-1.257664001781064710e-02,-3.251077534560095628e-02,2.503851542377602546e-03,3.136686300817177753e-02,5.590931982247752952e-02,1.515128407841316235e-02,8.363335651022842793e-03,6.269647394840312943e-03,3.189554561217289752e+00,1.475056757448568590e+01,3.452954288854736831e+01
-1.538885429311568576e+00,-1.529241158324993188e+00,-1.491305143675872857e+00,5.126003155935402456e-01,5.022260030909461159e-01,4.621162117528588853e-01,1.569812243179155575e-01,1.728539106673896708e-01,1.747083008813281879e-01,-1.896042923750950182e-01,-2.535891843298546666e-01,-2.970002925812336159e-01,-8.806942286277155696e-02,-4.228279078701023541e-02,1.286688157757159660e-02,2.754665278330881498e-02,4.413641020834677131e-02,4.054926353089175622e-02,2.092844876219432937e-01,1.927002435585592754e-01,1.671807360792507691e-01,-1.785631406586682401e-01,-1.742393372980625965e-01,-1.469838776967890004e-01,1.752241554403866086e-01,1.453990159740495836e-01,9.995507069657515176e-02,-8.112219516967049404e-02,-4.676810478704803570e-02,-3.410879169939928790e-03,5.697238059613855821e-02,4.308351869266584255e-02,2.363857906050789714e-02,-1.769517538226261094e-02,-1.043565148253744988e-03,1.828567792922597413e-02,-1.251417735790256447e-01,-1.304952530929451293e-01,-1.218067213698021400e-01,1.193193655369852307e-01,9.570629761165502791e-02,5.418686370597830537e-02,-5.156857454101169275e-02,5.407634611644123075e-03,6.590199443234615040e-02,-2.659407453834822938e-03,-8.143970507963070593e-02,-1.477674659345840080e-01,-4.821649112033432605e-02,1.796959529093578728e-03,3.157254412830149543e-02,6.432834108520064931e-02,7.357735837648340937e-02,8.759642135613272818e-02,-7.725273258117702074e-03,-4.084260028393583986e-02,-6.343221451578973102e-02,-6.160753581864702316e-02,-6.821638111091420098e-02,-7.405584341732106279e-02,1.347275725069156938e-01,1.634870783792825299e-01,1.679385503818980885e-01,-6.619027622260759136e-02,-6.422965736242580714e-02,-3.163362022326389467e-02,6.089323255068947172e-02,6.980162027193415053e-02,5.896722585067935840e-02,-4.464832901788430564e-02,-6.753860960109463185e-02,-8.103882603324241707e-02,-1.774779097469267319e-01,-1.673149659870794281e-01,-1.503901965016927467e-01,2.071719087008040971e-01,2.110576107320457917e-01,2.005930374477044031e-01,-4.310448292349957494e-02,-4.066385295471394712e-02,-4.472843143841232633e-02,-1.569771021852829629e-02,-6.521247895473815392e-02,-8.943924934358504775e-02,3.308765467232899216e-02,1.123475429774666856e-01,1.700950725786447293e-01,-1.985995608934121304e-02,-6.021858279698824590e-02,-9.297518744722185757e-02,2.139643252080843272e+00,9.668945762802799493e+00,2.200976143530861862e+01
-1.076436067482461567e+00,-1.061250324922202060e+00,-1.068770128869341640e+00,-1.000830307291411952e-01,-1.174466914050476679e-01,-6.729442940412472263e-02,2.668295757070780067e-02,-3.507109358770026108e-02,-1.183152960479412763e-01,-1.073525479094705054e-01,-2.455411026225805607e-02,9.030075853162375377e-02,4.002726896971557369e-01,4.396265900881288213e-01,3.707739809543388887e-01,-8.976323860508828023e-02,-1.294774770012388498e-01,-1.320734333927198190e-01,-6.065778799028274937e-02,-8.539661957189881303e-02,-1.204860426236709636e-01,1.679784151751755050e-02,8.890614499884117849e-04,-9.270104481484039635e-03,-6.444575185574331899e-02,-8.179532606808383177e-02,-1.175812975866975807e-02,-1.198736878250608595e-01,-1.064013181469750519e-01,-1.258220433118593662e-01,2.044089211890224578e-01,2.012052011898761983e-01,1.516698368789461959e-01,-6.785117408634787350e-02,2.623242715256093871e-02,1.089905971346942781e-01,3.535412019532029049e-02,6.703086676340174431e-03,-3.760205744760438534e-02,1.152675483097010123e-01,3.809384584647585587e-02,-1.312130513719243687e-03,-1.167536217443929242e-01,-8.980555712563537130e-02,-3.159966264432105543e-02,-7.070550619385956859e-02,-8.195926473901590792e-02,-1.162590181548677493e-01,1.131275651915605723e-01,1.238991561290253146e-01,1.149146442661007073e-01,-5.140690104706400337e-02,2.378336277986764155e-02,1.047994413409138320e-01,3.101758921882341938e-02,-3.102539551321837480e-02,-9.855944715810310841e-02,1.680961882406860602e-03,-1.840717411426506323e-03,2.172433205156804742e-02,-7.515825814767922164e-02,-6.864707356051377718e-02,-7.591444267198119156e-02,9.786855510169678585e-02,8.862079705648756578e-02,6.274770980236361873e-02,-1.067012038463891963e-02,-9.702510651347886345e-03,3.250250850394307417e-02,8.930247061351157326e-03,1.046516635163555892e-02,-1.425029766163780388e-02,-1.683614059663360654e-02,-2.242654735715061617e-02,-5.135847945399910075e-02,-5.009430648208620940e-02,-2.547527401427445923e-02,2.979776945189856543e-02,-3.276415885080982693e-02,-4.920900142143535411e-03,2.379202307402073988e-02,1.172637022269038404e-01,4.084790932886279979e-02,-2.022029796789506437e-02,-4.743338418584647220e-02,-2.085860799775004701e-02,-3.017063367166240850e-02,-1.003369425077055462e-02,-2.036227735596808554e-03,1.922220676025787264e-02,2.711453897358480525e+00,1.288434134960307809e+01,3.113931086403135140e+01
-1.634791967770464538e+00,-1.608117726854975560e+00,-1.564374648191139805e+00,7.033239805401434452e-01,6.711643626854337796e-01,6.216933577857625126e-01,-1.311439588539393686e-01,-1.532373243785000172e-01,-1.772629408522567451e-01,-2.837858850504007026e-03,2.894002350750734393e-02,6.917129405324067004e-02,7.999897149082048353e-02,8.230680167800398517e-02,6.758191598129725808e-02,1.116601208768345371e-02,2.074345194706129700e-02,4.710953320135979200e-02,7.258973125218393108e-03,-3.154617705884486811e-02,-8.393760834896339673e-02,-6.544520324280700407e-02,-3.827581724123996915e-02,-1.319221361086031497e-04,1.026258681594228589e-01,1.023419667447085651e-01,9.610049904179723823e-02,-1.411471689422288123e-01,-1.865592420688803044e-01,-2.184503679142740795e-01,-2.915684837945579921e-02,5.482176684614459977e-02,1.273991469710225310e-01,2.450019099464839645e-02,-2.417295742835303893e-02,-7.388681356269702349e-02,1.910715326675734571e-01,1.905820448229518793e-01,1.877571697551252972e-01,-4.054464814757309521e-02,-4.978931299623998857e-02,-6.508838287385457222e-02,-8.881553531131751444e-02,-4.748756949245886566e-02,6.366665259682710749e-03,1.911250727012474282e-02,-2.193840734222230263e-02,-6.374782043983806545e-02,-2.219514547506288432e-02,-9.757825586709002047e-03,2.664263683021240309e-03,-1.276910476577033937e-02,-2.138569695480450894e-03,1.263672901323993972e-02,3.093233928709726924e-02,2.666535967642952656e-02,1.788778385632313478e-02,7.488613852415364203e-02,7.214404913790201102e-02,5.662729341976961012e-02,-2.314941683389209470e-01,-2.169471799851946936e-01,-1.825127668241605383e-01,2.550976191236295487e-01,2.321781675458688132e-01,1.910896867647562114e-01,-5.609886512620960303e-02,-6.804647784791310883e-02,-6.334423595915365801e-02,-6.233353732458056518e-02,-4.110186847697297474e-02,-2.847203699300200966e-02,1.647008697019209517e-02,2.452901957500238164e-02,3.606712393157261720e-02,-5.370238379474413966e-03,-1.981505417523283033e-02,-3.380505591494977619e-02,-2.126623892427823709e-03,1.185660347856808301e-03,-1.311639695312094220e-03,1.341772734966578673e-03,1.380474273470073607e-02,2.506049572156100053e-02,-3.310154491505483410e-02,-5.213018068039854125e-02,-6.296528020643868406e-02,4.200125659015908203e-02,5.002796575524381256e-02,5.437917784472884319e-02,3.143716676380861497e+00,1.363174932342404233e+01,3.020892417048450795e+01
-1.595592939872287230e+00,-1.583568629024648011e+00,-1.514230921454543966e+00,6.928879966297494253e-01,6.404167420383499731e-01,4.985632023539472990e-01,-6.748633721138123931e-02,-1.435264651157018914e-02,6.656544252701382391e-02,-1.049421767283660739e-01,-1.339189245534557204e-01,-1.462531664611615434e-01,7.409702068144048692e-02,1.158299666358688640e-01,1.316145265090595540e-01,-3.006786525219264788e-03,-3.661671152904954346e-02,-4.847022855898368288e-02,8.695966253874549967e-02,6.280068436838823209e-02,3.475352356691552291e-02,-1.369067283154739301e-01,-8.170659774556385258e-02,-3.489121368371185528e-02,6.867170817318087039e-02,1.427518526234292096e-02,-3.763603909030109607e-02,-8.500091176116726654e-02,-3.782072299075683874e-02,1.824188689874040384e-02,1.072115394812531430e-01,8.294639141451126685e-02,4.674159544537487276e-02,-1.189535985088779058e-01,-8.989410323030867789e-02,-6.148986282230051170e-02,3.126336278039880401e-02,-1.635109857215279183e-02,-4.192384466258350373e-02,5.296875351381951508e-02,1.068224031491246812e-01,1.268544351927190506e-01,6.438257785532713884e-02,3.484381055591390802e-03,-3.731096233430350462e-02,-2.037288648584441031e-01,-1.608360526604285523e-01,-1.129101184870215796e-01,9.225797788880278627e-02,9.047174036923677498e-02,7.721027913597890147e-02,7.817498885621702864e-02,7.601837948391819422e-02,7.135504016826833829e-02,-4.405452384522547116e-02,-3.642949582536443576e-02,-1.228202529770504835e-02,2.378396978996719091e-02,2.135851093779895377e-02,-8.130323580390020830e-03,-1.754081667895419222e-02,-1.522086061575064590e-02,1.311528165710366392e-03,-6.745587535587194324e-03,-2.907668570678815373e-02,-2.588754086413353264e-02,4.641824580051730209e-02,4.581428697986399123e-02,4.322095072886645260e-03,-7.179986877440247550e-02,-5.735499873787386349e-02,-2.420950970085718884e-02,5.444432066656774635e-03,1.449995313877089353e-02,2.753411010959668295e-02,1.352728337993100993e-01,1.193691381306170585e-01,7.843941472425730588e-02,-1.637912262233043592e-01,-1.504242334054671226e-01,-9.225507708263644413e-02,1.018893662400612299e-01,7.717072667926169749e-02,8.239785724996073063e-03,-1.018664835827932241e-01,-8.220625003817332022e-02,-3.939227505939625618e-02,6.013064867445484796e-02,5.483278155192550241e-02,4.579526571524959733e-02,2.078591047542272197e+00,9.146140155681745654e+00,2.006346345058391023e+01
-1.186771501714959820e+00,-1.189000814381868221e+00,-1.179372252534258481e+00,1.315641960484872364e-01,1.414518919791237228e-01,1.474409706088561645e-01,2.796820093930607598e-02,8.805734966443498971e-03,-6.487352918792092804e-04,3.115514541844213378e-03,-3.842114476028862802e-03,-1.190517836727608345e-02,-4.603533790400788153e-03,1.342386507147608557e-02,2.006159851812899450e-02,3.430816484303035596e-02,3.842165869199531958e-02,3.293246497714433230e-02,1.813601651277164245e-02,6.724910229509750356e-03,9.786323314903141307e-03,-1.046852242650598008e-01,-8.845047457073079711e-02,-8.905298142165189723e-02,9.305606957388030953e-02,8.787456154084004323e-02,7.014227751144465339e-02,3.799710758623241896e-02,-7.982748004080098686e-03,-2.891010104583508974e-02,-2.153549405575613113e-02,1.871390734298371966e-02,5.129509278183876086e-02,-3.634645657774601690e-02,-6.080530843968883631e-02,-8.025488891033266681e-02,3.092573382056874529e-02,2.235349331830601555e-02,1.965226998164582711e-02,-3.257850718686522255e-03,1.898813539006836970e-02,4.221448116396375738e-02,-1.150459104900511814e-01,-9.207405880504368478e-02,-6.156325573236081511e-02,8.541003460687825177e-02,5.336226008576665236e-02,1.158947897877515669e-02,-4.813264124580429043e-02,-1.849354756961953117e-02,5.406369993530963508e-03,6.859208120436766087e-02,1.078020057251788955e-01,1.182744781140438323e-01,2.299802820784774618e-02,-3.313605849982934753e-02,-7.600957692855997427e-02,-2.867315130292784689e-02,-3.403385055715899693e-02,-1.401280205568543324e-02,-1.518665221802809398e-02,2.082698642752576872e-03,-1.224083630891533575e-02,5.739201691364605173e-02,5.485422379601317261e-02,8.576339190960312331e-02,-2.901203534235552439e-02,-4.634483780139082854e-02,-6.455343974093805115e-02,-3.518664214316893218e-02,-2.247399577646027810e-02,-9.052823381322187141e-03,-3.016819902855134503e-02,-1.708737480884528481e-02,-2.285381519774241574e-02,5.497473350126404895e-02,7.534170227595996493e-03,-1.446060034372662409e-02,-2.619820809457037124e-03,8.485977068138629564e-02,1.174030189073471397e-01,-3.178606765313060634e-02,-3.383729258380127614e-02,-1.607937845233453622e-02,-3.400397926353118661e-02,-9.443345302378348960e-02,-1.251024029952078620e-01,6.068866324416694741e-02,7.484159287144499795e-02,7.419184538081735614e-02,1.971852336183602450e+00,9.243961926327756373e+00,2.209871717717867057e+01
-1.559606036484109781e+00,-1.584802178745422063e+00,-1.574017203887829064e+00,5.965205541541631629e-01,6.265564745394269774e-01,6.029233574701527987e-01,1.685191267300501644e-02,-2.241244167950807217e-03,-4.090853868830766210e-03,-2.621657626146361997e-01,-2.557414932689632270e-01,-2.314687774071894077e-01,2.587291852790222224e-01,2.766350438432721437e-01,2.673847309966552177e-01,-1.714147313291220290e-03,4.444953267889385664e-04,4.597122232636138145e-03,-2.108113815436632801e-02,-3.041671507233392052e-02,-3.318932442062835081e-02,-2.378072970946536469e-01,-2.299317539355824613e-01,-2.145847658915683021e-01,1.309291694790888361e-01,1.305798239012360418e-01,1.180154428490872431e-01,2.190759631378241812e-02,-1.047504047585943315e-02,-2.339521041678135557e-02,5.088555988676431163e-02,8.118639130874384657e-02,8.472020682491308852e-02,-2.613417592722688462e-02,-1.542882322537586330e-02,8.337923967597672681e-03,1.547056048397621175e-01,1.131442766318599136e-01,6.264806509070670881e-02,-1.143683887914229563e-01,-8.955690802534772843e-02,-5.175018616116604936e-02,-5.151534993216810160e-02,-2.745197435910563463e-02,3.134956419511938691e-04,3.344926983278858484e-02,-8.348289858136764829e-03,-6.245164979851556414e-02,-5.350069345596075721e-02,-4.072904083395823688e-02,-2.195750262167065620e-02,1.873179292308254640e-01,1.873068363930364688e-01,1.838491523337752453e-01,-1.177379657798111878e-01,-1.109874764363379118e-01,-1.056094757607828616e-01,3.672910144617801825e-02,2.860112437534432020e-02,1.238231509258530538e-02,-5.899453509295765619e-02,-4.119390509599603345e-02,-3.525779891871990476e-03,-2.530152396094099282e-02,-2.329161932119113224e-02,-2.980880469848060793e-02,1.367502770322856220e-01,1.036651871900579613e-01,6.974436704302622303e-02,-1.007295168096536131e-01,-9.827989600651693136e-02,-8.743189299170137097e-02,-5.314510769858848960e-02,-2.915619898708065108e-02,-8.725238151395022998e-03,1.535271667587274347e-01,1.172410291085816819e-01,6.572679174621268161e-02,-1.208607811369090540e-01,-9.363220947676621775e-02,-4.182087932567189054e-02,-9.216373291912115934e-03,-7.512998448033973535e-03,-2.016926412248483402e-02,3.735752903167351840e-02,3.149198347496310474e-02,2.641939473922798667e-02,-1.530195199226022651e-03,2.537605271824944567e-03,7.099578016349718940e-03,1.764005074709814158e+00,7.891831729486646019e+00,1.801135928943459419e+01
-1.024803722904076730e+00,-1.020777488890054263e+00,-9.790677480292596657e-01,7.286906506702207215e-03,2.913260864801707484e-02,-2.896184239656434452e-03,1.275382137118674999e-02,-2.164561601227148885e-02,-1.821570511088876909e-02,4.163475041749262195e-02,4.163135434603713880e-02,1.640896350683180779e-02,-7.823567771011645175e-03,5.314146896463586150e-03,3.326044110731284087e-02,6.217171792973699707e-02,3.928696260199227019e-02,6.775698907297987746e-04,-8.162588630816905444e-02,-7.495152656142439751e-02,-5.970837978806495944e-02,-6.926110308685312633e-02,-5.679557523240043315e-02,-5.804282967536193716e-02,5.501165610097875913e-02,3.278375767283163433e-02,4.998854450085651185e-02,-4.844920761094068801e-02,-2.368484403619981749e-02,-3.191192420999180296e-02,4.698629699946303001e-02,5.373420071863903302e-02,5.131145316953888286e-02,2.120937532614752818e-02,-1.508680695639596711e-02,-2.560119038361056282e-02,1.335335173503311192e-02,2.656842134314437581e-02,2.967453042789608073e-02,-2.269407722313014283e-02,-2.900780299221570636e-03,1.219640944388251762e-03,-3.225762120660295024e-02,-5.802274313916974680e-02,-5.673532272409533700e-02,1.596332187060022206e-03,1.938150297112806869e-02,2.554745574528232213e-02,-1.681892836230029428e-02,-3.557642205050880885e-02,-4.108237121078466697e-02,1.338829710442735604e-02,3.672368040470862238e-02,4.724466323766295106e-02,1.408981404148148923e-02,1.956567733841556647e-02,7.905863231200569927e-03,2.880686301621719972e-02,2.546885387358877040e-02,3.717641112234558454e-02,-6.295545215485252866e-02,-4.523492234251910715e-02,-3.954806951355094996e-02,1.877975787113594225e-02,-1.380607716865065067e-02,-2.955570233532685623e-02,3.546506298619139796e-02,2.097229460901309586e-02,2.156008849092690832e-02,-1.466466920826575010e-02,2.187408597770416560e-02,2.935706762026011121e-02,-1.189541809581218072e-02,-1.456651326647403176e-02,-1.856919904333620419e-02,2.244776938608975675e-02,4.050979830577255275e-02,5.727929628398813200e-02,-7.341196351998094394e-02,-1.040149917959980325e-01,-1.269614023543232939e-01,4.128008589456381300e-02,2.152694175296392468e-02,3.181241002423822878e-02,1.003710606373144909e-01,1.232124151644946874e-01,1.128171820322735053e-01,-6.979200221126745374e-02,-7.045431830742532320e-02,-6.519646536897534539e-02,2.775838419210368890e+00,1.301377525785244416e+01,3.106108064138920710e+01
-1.232676197495926385e+00,-1.194071254974599539e+00,-1.153501957172016645e+00,1.889639549664119123e-01,1.390941689493083999e-01,1.082059675896720335e-01,1.877424140055000690e-02,6.121833342602327199e-02,1.093760412776485225e-01,-8.149192329068384588e-02,-1.559197292579991290e-01,-2.574119622964406440e-01,1.220534892359364243e-01,1.193527318383232477e-01,1.353271774013405926e-01,-7.729704156784386604e-02,-1.527643530007890757e-02,5.604631759636030663e-02,9.350919208869264143e-02,5.839759468382106633e-02,-5.623353606066308630e-02,-1.560267703831768049e-01,-1.323488413889295223e-01,-3.651248001734085091e-02,1.606592894303683905e-01,1.128788564684406748e-01,2.592265363706383260e-02,6.845526687089663158e-03,4.396118881664073247e-02,1.005916556271075624e-01,4.533771784338918275e-04,-7.040211831245200488e-03,-3.255260653194870513e-02,-8.673632818391102672e-02,-5.661365992660678109e-02,2.105838729765698025e-02,9.246686344522641807e-03,-1.090191734401582202e-03,-2.919774978322326256e-02,1.364660656180407827e-01,1.184822086503315303e-01,6.077701018649009357e-02,-1.931047208565813689e-01,-1.570252882773927883e-01,-7.194453579863450965e-02,1.718789739536907488e-02,-4.987791255874765919e-03,-3.351125915544995310e-02,3.610201231040774394e-02,1.019944622419978290e-02,-2.701552017846962916e-02,7.116607077920512892e-02,1.407344374650461027e-01,1.572690532015140752e-01,3.781087630445232467e-02,-1.088345864551035908e-02,-1.362307613023332545e-02,-8.470861055646718152e-02,-3.095825735091758957e-02,8.916298461362034966e-03,2.701820468300809332e-03,-4.545633160590846489e-02,-6.923997712542891148e-02,-1.097698934755141596e-03,-4.947566633582349549e-02,-8.244504697193165421e-02,1.759797991353317242e-02,6.360439935585240900e-02,9.180170541419327424e-02,7.641283371703731786e-02,5.705870796000092615e-02,2.229811266635338754e-02,-1.524549888737720404e-01,-1.137778119145508027e-01,-8.525754120828893390e-02,6.273957618582778895e-02,5.686118211247916110e-02,7.681669996257012301e-02,-3.460993065500540117e-02,-6.570532838112973228e-02,-9.937433138489820683e-02,-3.975237669195998136e-02,-4.545405016819192845e-02,-3.582363929711877143e-02,3.333628629416793276e-02,4.463143812558090229e-02,3.409189638521066545e-02,4.811234626086328264e-02,5.977780370892075978e-02,7.530251850347130516e-02,1.588736444944404802e+00,7.515097128757193268e+00,1.783911776259943593e+01
-1.466129781006672461e+00,-1.472276151414133816e+00,-1.462923812497973985e+00,5.450571243850035330e-01,5.400788722906524342e-01,5.129953906365533056e-01,-2.084485187492428060e-01,-1.988865876564696600e-01,-1.736917273168174236e-01,2.623346680135987818e-02,3.398113679129304357e-03,-1.875899012193022949e-02,7.163060537120460869e-02,1.024593811813417216e-01,1.213163678850381483e-01,6.954910043169140743e-02,7.236118683735447144e-02,6.834512244016234528e-02,-7.017629609812857383e-02,-8.068250524072338725e-02,-7.392027709606181773e-02,3.331340492474212100e-02,2.508613090270214036e-02,1.105473159824730232e-02,2.127147738481008701e-02,5.235011261636089708e-02,7.120704096997676480e-02,-5.658485578011938216e-02,-9.264815470430337596e-02,-1.102971440579143536e-01,-4.339525319818172272e-02,-5.002934545351949910e-03,1.938158302868052407e-02,1.284461957510543428e-01,7.109883863716434660e-02,1.558553033676094920e-02,-1.953851831748494236e-03,4.417968501787359475e-02,8.969531835653844765e-02,-4.070101725320324215e-02,-5.945907797604914335e-02,-6.993387814885135279e-02,2.684513211594461921e-02,2.706072684290504807e-02,1.233030998947695286e-02,-7.766094733593260913e-02,-5.515077554393212067e-02,-2.327360237916879793e-02,3.151378645099802388e-03,-1.721484775501552419e-03,-8.374258820456696381e-03,1.776238046075174354e-02,6.678179769824376354e-03,9.982895514413938839e-03,4.544897209664538335e-02,1.612097628591152229e-02,-1.964401041476320636e-02,-1.294278070192029194e-02,2.567529629868145480e-02,6.181704814151328664e-02,2.728745119274041467e-02,-3.939661779410335435e-03,-2.919970046180828116e-02,7.178471725464626030e-02,8.069462693403169073e-02,7.244841332428525460e-02,-1.588774706187869035e-01,-1.200176536385829523e-01,-6.920526667901620577e-02,-4.223993912632115905e-02,-6.256170464420487964e-02,-7.841578702123401523e-02,3.875094588886802971e-02,1.928631516604839211e-02,-1.470837636739190032e-02,6.083723146375676072e-02,1.017236930723024319e-01,1.488593260963712028e-01,8.531550003429644313e-02,5.654631066427792674e-02,3.005719891060472382e-02,-3.873885927303702403e-02,-2.892372714788357668e-02,-4.324869995396597722e-02,-1.867545457199628889e-01,-2.116222115613092536e-01,-1.936800441788858740e-01,1.321628351939552748e-01,1.482905365275036247e-01,1.443406605128470799e-01,1.895723358467401587e+00,8.471074315014137213e+00,1.944352749867515229e+01
-1.205560497961124078e+00,-1.178122443755585502e+00,-1.129266649045727933e+00,7.833689329924763134e-02,4.944571938074301953e-02,5.915064691917513995e-02,1.075101726548926689e-01,1.399896197834196998e-01,8.941257777159521136e-02,1.192028280203315943e-02,-2.080216903442384802e-02,-4.158831137395838096e-02,-6.803184570466481659e-03,-2.332562531278366616e-03,3.876660509140077843e-02,-2.047211986812475654e-02,-2.231267120567542381e-02,-4.175609113056712868e-02,3.369478548036995702e-02,9.928742323203605669e-02,1.093388386045735516e-01,-6.948507640039781885e-02,-1.453227664400254249e-01,-1.803253861746395847e-01,3.120832477397199670e-02,-4.348333778280078638e-02,-5.734866781447611056e-02,3.378088012442961863e-02,1.275830516792242908e-01,1.498765444537950575e-01,5.145418841692375039e-02,-1.443193166722244077e-02,-6.233817299056687578e-02,-3.323115547281032395e-02,3.656219242362525323e-02,9.242439384104046696e-02,-3.936146856525224447e-02,-1.980419055692691100e-03,3.132704726856328642e-02,8.972586435350080047e-02,5.942306902610029751e-02,2.377760358361592427e-02,2.468115682116676576e-02,-8.605083528847079499e-02,-1.519356765827755418e-01,-2.156650250794949486e-01,-1.469324838171054970e-01,-7.640662126679807764e-02,-5.133079964246637511e-02,2.774852500268830402e-02,8.650354760263011256e-02,2.206344294882441048e-01,1.470282175191151841e-01,4.995175882470240247e-02,-1.900850327640733403e-02,2.173217284073320713e-03,4.375033031827380708e-02,-1.175947285245205060e-01,-7.199188925044290588e-02,-4.518661689968528350e-02,1.276924902851606369e-01,3.654131560012158220e-02,-2.303108806534830480e-02,3.563164216832206965e-02,7.875822266065317379e-02,9.711876126008774091e-02,-3.082963275832763250e-02,-5.788906030469925107e-02,-8.511407706976190091e-02,-4.202784132278329643e-02,-3.590810829974677709e-02,4.572783818097371500e-03,-1.324487345302007013e-01,-1.143857800746511666e-01,-1.010103241525855816e-01,2.222444338455952795e-01,2.348650928810171734e-01,2.012012727656780908e-01,-5.891062579490354001e-02,-7.263093832947589701e-02,-8.049406056175048563e-02,-3.115800494141972646e-02,-3.118574223448107238e-02,7.550246031841930175e-03,-1.298494510898246523e-01,-1.023842908885261443e-01,-6.995007630407577837e-02,1.353908281268692004e-01,1.088719437577859717e-01,6.113022307148001377e-02,2.227629152850990835e+00,1.048866633400084147e+01,2.481549245628805878e+01
-1.275763583176597660e+00,-1.247160027212390832e+00,-1.200739874199843626e+00,3.287177532857714080e-01,2.681671752309752188e-01,1.868285857506613024e-01,-5.009032829613854765e-02,-1.762213905120987856e-02,1.862118015383546626e-02,-9.042815862557718881e-03,-1.432672928181546144e-02,-1.527160994549573575e-02,4.544121793320478331e-02,3.776800076316641497e-02,2.369985589941482618e-02,-1.344972253856341893e-01,-1.291168120789627782e-01,-1.169174076952775587e-01,1.022252557154781222e-01,8.982031272210559691e-02,7.430869849820033457e-02,-1.010856602774936053e-01,-7.424463434656175531e-02,-5.007639662064485714e-02,1.286238995802068130e-01,1.135417401566458651e-01,1.014908021025066331e-01,-1.724720700814353844e-02,-2.252457873179053438e-02,-2.933783491352359371e-02,-2.703600359458798244e-04,2.279139525426213467e-02,3.687304180406231202e-02,-2.799691553080573686e-02,-2.916584624697117142e-02,-2.401046296017007864e-02,-4.158306005295705349e-03,7.336304161473555970e-04,9.105814210689509511e-03,-2.576816129378301998e-02,-4.095116556329128632e-02,-5.628783456635586685e-02,9.827331958047372251e-03,1.023542584384129830e-02,6.267563268452056024e-03,-3.848307449956674120e-02,-1.993893224810763462e-02,-1.077682329987510136e-03,7.072280823693127827e-02,5.121311827527639388e-02,3.732058354515654236e-02,-8.383331794919632318e-02,-9.480701438670628700e-02,-9.831753546959678958e-02,1.357072107202807187e-01,1.510217752635881205e-01,1.471989492569329983e-01,-6.225720551300759076e-02,-6.259788955783314457e-02,-4.783962211017641492e-02,-4.607881103621681157e-02,-3.499690454314382387e-02,-3.116672195994968364e-02,5.301521050267828800e-02,3.826388855177531578e-02,1.960711807418590719e-02,1.545278106765684591e-02,1.281051009563573782e-02,1.061924329946448663e-02,1.733587536145887210e-03,1.114294781697100327e-02,1.809787468876084687e-02,-7.668174136661876084e-02,-7.841667290464121587e-02,-7.458691418305002374e-02,1.392915314931395809e-01,1.344552187104737784e-01,1.203726748266117502e-01,-1.088446422099827726e-01,-1.183141429554734197e-01,-1.057897281969456538e-01,6.173534692737848995e-02,7.220627357488910991e-02,6.533747205096139543e-02,-6.829605433797474034e-02,-6.830969545215490046e-02,-5.862187101206243339e-02,3.807032027077134756e-02,3.846467345988187347e-02,3.440060809515445295e-02,2.853464336349027963e+00,1.272664328828740032e+01,2.954109625921272198e+01
-1.271750670633136515e+00,-1.264145998980147789e+00,-1.247216784352377150e+00,2.215434341821579667e-01,1.951007079178369019e-01,1.790188644113494543e-01,7.974667586412377551e-02,1.584642367371720262e-01,2.094669028755133111e-01,-6.230526343278670193e-02,-1.356363375149450268e-01,-2.068072565462520385e-01,7.340278189509315265e-02,6.065612127128204578e-02,5.775579249924316788e-02,-2.701867847447581364e-02,-9.725430036715601231e-03,1.412969849487659066e-02,3.022245922805127938e-02,2.117681153987393747e-02,8.956901830796278746e-03,-2.345747142582881861e-01,-2.008504234068575756e-01,-1.716182421832039562e-01,1.455247292777460122e-01,1.370377386419877053e-01,1.231448739123783970e-01,-1.256690740396867838e-02,-2.778574247098488173e-02,-4.067217705851931125e-02,6.493866451327715006e-02,6.278773896043160496e-02,7.932609479831495558e-02,-6.769927712368679906e-02,-7.331929649324725462e-02,-8.875472316459791233e-02,3.955658098324040667e-02,2.933004134079862657e-02,1.048880682438595689e-02,1.161975001198194829e-02,4.954134382892740052e-02,8.557949120295593737e-02,4.535128325369695151e-02,5.186113120982967922e-02,5.802722465731802171e-02,-3.612209406575286885e-02,-6.357711065252205640e-02,-1.019965677223138578e-01,-3.186049535384671144e-02,-8.320463627656923128e-03,2.406926526727827184e-02,4.480099097711153638e-02,2.719710261108668203e-02,1.929998701252927384e-02,6.379683520549542242e-02,6.302140884857811154e-02,3.590108861897876175e-02,-8.525266061241171256e-02,-8.097800197696457258e-02,-5.459540891418919462e-02,-4.244593841648743732e-02,-6.365829830176386595e-02,-7.377222378208414533e-02,1.604017066737437602e-01,1.676828452761802146e-01,1.486152399805567847e-01,-1.574089213927060138e-01,-1.332735988197361610e-01,-9.660547730300794722e-02,2.792739948443867873e-02,3.095754795742292065e-02,2.348956416150226739e-02,-4.448450272586601528e-02,-4.212470764116767880e-02,-2.818754043648882823e-02,9.903757982803335080e-02,8.125642921759491932e-02,6.545478577740060366e-02,-3.115574423725936404e-02,-4.839659073642001846e-02,-5.948845846957361017e-02,-2.562688305754861826e-02,-2.718166121028531626e-02,-2.810264863553751588e-02,4.332454036210395265e-03,2.971268583787923037e-02,4.462414812614494408e-02,1.822907770955354070e-02,1.331883020734904617e-02,1.056768546531539586e-02,1.957311460719549645e+00,9.033887619829945592e+00,2.116747771905533426e+01
-1.160512084328283233e+00,-1.120305537957075215e+00,-1.061865107266741326e+00,1.307428085461585510e-01,9.217687818930030141e-02,5.320791296214773258e-02,7.147044989003371873e-02,6.405545935038703398e-02,3.678289914444458214e-02,-5.623735155435424793e-02,-5.254991911335577665e-02,-4.027838768994651542e-02,-3.901040355779210322e-02,-6.750943762152841407e-03,1.544767643815115818e-02,5.372570233366207038e-02,2.809554964547264500e-02,1.553681046259185183e-02,1.048178599409267664e-02,-1.069814565922428719e-02,-3.497598780441641547e-02,-2.149429692200767114e-02,6.692040182941567071e-03,1.658527265697913589e-02,-2.639274623434865671e-02,-4.769522369534179990e-02,-5.236784488255798869e-02,2.445918631641599145e-02,2.066448403124025723e-02,2.111385116601220691e-02,5.133852761743628625e-03,5.134236303212752570e-04,-7.370440474953160806e-03,-9.001024110337675632e-02,-5.599017761150530681e-02,-3.406268775212535627e-02,1.624613228758044758e-01,1.368360702500358850e-01,1.136383643323401610e-01,-1.354854404425092085e-01,-1.488741922032118525e-01,-1.434636280574179412e-01,8.356920658094271759e-02,1.110965337945843956e-01,1.197004977042618878e-01,-1.086069394447545661e-01,-1.078228020891642408e-01,-1.111005464987467745e-01,4.617229768280976115e-02,4.666187244765114886e-03,-1.176195714089200289e-02,6.344749291384481349e-02,8.670076849002200658e-02,8.875315501691277698e-02,-2.385438261154125203e-02,-6.317870938385491443e-03,7.129139945506453128e-03,4.367642142508216391e-02,2.762583139462864573e-02,2.473707983747067823e-02,-5.304392231751722808e-02,-3.679381405694950175e-02,-2.588954492010978395e-02,-5.496675814753611278e-03,-1.027715657853584333e-02,-1.264577353488494441e-02,5.145471068449353896e-02,8.110397674546307445e-02,1.036227255315700646e-01,5.032996781612753684e-02,2.049474661455808269e-02,-1.312080154209729378e-02,-1.613849376843689565e-01,-1.557041547875121779e-01,-1.275458053005859016e-01,1.253521291689508044e-01,1.099098642514930446e-01,8.212618813334762735e-02,5.414045252147701298e-03,2.656216066314004420e-02,3.303675245963406254e-02,-2.561898841300294660e-02,-2.687441585121340057e-02,-1.206664455354838385e-02,-1.041482165449064967e-01,-1.135156658926703005e-01,-1.163593852102311199e-01,8.361336150594413097e-02,8.315645519446995815e-02,7.359594238603979488e-02,2.453608224978753860e+00,1.142062259549586400e+01,2.739319226878055957e+01
-1.100555003640348639e+00,-1.071086810829417590e+00,-1.041592830211389265e+00,-1.062471409443601633e-01,-1.391683145946467082e-01,-1.589821494840312210e-01,3.176974264694956140e-01,3.271553772949735150e-01,3.313468976499473473e-01,-1.114836974646647716e-01,-1.151949291499032302e-01,-1.290504467938107525e-01,4.074583854316016218e-02,4.238477660690036924e-02,3.373156791738059213e-02,-6.153447672413155101e-02,-5.895964778231892883e-02,-2.436041885609019006e-02,4.969638672509387595e-02,5.762452866888341518e-02,3.565434526200261800e-02,-1.233700722914854442e-01,-1.522770561240174569e-01,-1.724562360891212232e-01,5.126128559175974209e-02,5.476760608311382478e-02,6.833822251130708403e-02,1.671548814116870507e-01,1.734165221461087258e-01,1.574413070769897782e-01,-2.351996137816504129e-01,-2.124882299872700719e-01,-1.663313608408774347e-01,4.513606788547597920e-02,2.915075410457500238e-02,9.742231859572682631e-03,2.010523814159384526e-02,2.289148737651730894e-02,7.006692954622832301e-03,2.422264517835121325e-02,1.068005955982358722e-02,8.254376630572748215e-04,3.498228659751565633e-02,2.650994942429860460e-02,4.045607102899600321e-02,-9.088557018608992011e-02,-5.791698414383303350e-02,-3.455164232250906159e-02,7.015884044860333339e-03,1.727999212475820126e-02,1.213192476898098705e-02,7.942043786475468103e-02,5.014036770526929254e-02,4.665788095561416299e-02,9.400754604328992459e-02,8.906042243160164351e-02,7.555241733775575064e-02,-1.516553815616654421e-01,-1.233904089394985276e-01,-1.118998174708374788e-01,1.647880467647954914e-02,1.606066529385440089e-02,3.474389601086209922e-02,4.707163143242301673e-02,1.250552051610821433e-02,-1.733934170325170457e-02,-1.201656861348302657e-02,5.080478202670250625e-03,1.000790536914433586e-02,-9.216916824264119110e-03,-3.488632333613495701e-02,-5.818326353793858152e-02,-4.732388640654214274e-02,-3.356511544234169059e-02,-1.275579652992410787e-02,1.004126232387770601e-01,1.219842796676103847e-01,1.211620562462069617e-01,-3.699346366275969855e-02,-5.075071745311517807e-02,-5.921523698266463465e-02,3.204020163638758925e-03,-1.890933119025357823e-02,-2.042810782444879486e-02,1.823769915079319348e-02,2.735462872087369296e-02,1.502100167720934673e-02,-3.018120146042846397e-02,-1.528610465445296752e-02,7.462779958707791220e-03,2.857169419964328494e+00,1.284133238393456011e+01,2.967165689978476095e+01
-1.153052754057292795e+00,-1.101470810216683471e+00,-1.034004278452616665e+00,9.337372313310944583e-02,6.966277228963570212e-02,4.122665445913131776e-02,1.166685765836732031e-01,6.796168010487396716e-02,1.749644739336309734e-02,-3.696939351396855145e-02,-2.650695382331038144e-02,-2.177631160300719237e-02,-4.688688969287434227e-02,-2.790385524803941711e-02,-1.223118411510696994e-02,9.002458178099477515e-03,1.036994580270236659e-02,2.316567654589238561e-03,-3.395760642316058425e-02,-5.807502193365426252e-02,-5.958976458242631891e-02,-3.390871530188613314e-02,-3.646249603754792012e-02,-4.946687459291409378e-02,2.836168025350391253e-02,2.369779304781680432e-02,1.949836825578423263e-02,4.623536871114457963e-02,5.083501724836674007e-02,4.196477371257992944e-02,-2.435090031757713991e-02,-2.708773701070613452e-02,-9.263574456671478524e-03,5.115880124686502176e-03,4.210444163262275219e-02,6.509245145351659489e-02,-1.350680562647765641e-02,-2.453207549124044803e-02,-2.314218250570199142e-02,9.275801214747039780e-02,6.152507829021969243e-02,2.378279293751332096e-02,-2.481179578770835795e-02,1.065454571879086501e-02,3.756214361539019636e-02,-7.249052070212617938e-02,-5.714302625855902096e-02,-4.168087036568873804e-02,-1.948927629392999562e-03,-3.005612613811681558e-02,-3.938723213931915462e-02,7.803384512327107836e-02,8.423675771993627270e-02,7.391357002946867538e-02,2.791931572655369925e-02,2.221008839283647451e-02,1.854579983175118352e-02,-5.228370908960260771e-02,-4.363661274881622948e-02,-3.796744623086809739e-02,-8.042827148814359062e-02,-7.886610446079804493e-02,-7.168209620124438297e-02,1.074571628618844893e-01,7.103297785523284003e-02,3.776815674804902961e-02,2.229049949696253544e-02,3.659675853832119324e-02,4.119399623170956481e-02,-1.366992281284574442e-03,2.719715667205849577e-02,4.216529088807922238e-02,-1.441285557231272441e-01,-1.640686709813288791e-01,-1.634883826168320731e-01,1.317637914230949947e-01,1.283447211856902359e-01,1.196391323252181671e-01,-2.995220962845135740e-02,-4.597259063454938594e-02,-4.663476010353593409e-02,-5.544875020131906362e-02,-4.116753803921921473e-02,-3.467130753844242796e-02,3.694295986838236345e-03,3.830181097529479495e-02,6.053592339970269298e-02,4.296468389734275917e-02,1.834943623677797245e-02,2.398127992254835486e-03,2.792393512137799849e+00,1.255884571987703069e+01,2.827939840199008614e+01
-1.171779709181655305e+00,-1.124659403203836616e+00,-1.060211273694711354e+00,1.226244041335046719e-01,6.379123031261435539e-02,1.513209389814202180e-02,8.259860329028709258e-02,8.761304948577369744e-02,6.741749678708693072e-02,-7.059295743485180519e-02,-7.261425841992551200e-02,-7.538979777624707501e-02,7.205729771895554026e-02,8.573347787714231949e-02,9.289652005804921453e-02,-3.488112337636845028e-02,-5.271089665492693227e-02,-6.843104041305994589e-02,4.213860530918539515e-02,5.597903375791923875e-02,5.180737449920009424e-02,-1.083469871920413469e-01,-1.364635949674495308e-01,-1.277322274720759931e-01,1.051879274692464616e-01,1.175034223327791200e-01,1.193227353617307140e-01,-1.564797541686538743e-02,-1.596723496427315900e-03,-3.865877583735511627e-04,-3.588759290616402170e-02,-4.631949040473939960e-02,-4.607663400940387871e-02,-1.604974928534808401e-02,1.029715769850014263e-02,2.935447489425208403e-02,-1.866123711857754081e-02,-3.629150314040826414e-02,-4.344750472541860503e-02,1.045017070499532214e-01,1.065270786196955838e-01,9.747154121106776925e-02,-1.145158154854184450e-02,-1.197653902777768078e-02,-1.274547171593174398e-02,-1.593625649928790411e-01,-1.436420737149476656e-01,-1.181575205375372389e-01,2.847946973133200915e-02,1.956428651718894809e-02,1.817337513789377829e-02,1.994164394130913953e-01,1.610938263232613021e-01,1.033773819223996193e-01,-1.161523869230068479e-01,-7.272302036709241135e-02,-3.340750474333564063e-02,-5.333816035687425142e-03,-1.604291527802511469e-02,-1.324955070608785888e-02,-8.261700581053441073e-02,-7.095716332877601007e-02,-5.154623767820337016e-02,7.731578800130742279e-02,5.498108085212090324e-02,2.315933751691684472e-02,3.848389241925659343e-02,4.839521703639760447e-02,4.773856012821664496e-02,-1.106285164336661721e-02,-2.726494206042455806e-02,-3.982481026992250317e-02,-1.630613521565299762e-01,-1.289319694457347620e-01,-9.729121778101725015e-02,1.703503624522689774e-01,1.458428077119520161e-01,1.382428284172584065e-01,-6.312811852293050141e-02,-4.557041618986060888e-02,-3.380697859907793451e-02,1.963028013241593581e-02,2.641100554909283846e-04,-5.674766840518874478e-03,-1.016564424977080619e-02,9.664740759042278473e-03,1.241363269221456428e-03,3.151659640125105410e-02,2.062040750399088754e-02,2.213775611796950718e-02,2.666488948898202427e+00,1.218196699214067635e+01,2.788688975997644448e+01
-1.394196313534238563e+00,-1.342793005414601115e+00,-1.232729320858570565e+00,1.867246663548898788e-01,1.412306687853114029e-01,3.612180249879896887e-02,1.217853918067769853e-01,1.080435539524175759e-01,1.144758650672509925e-01,1.973051587668189777e-01,1.738676592593290937e-01,9.857231807483647634e-02,-1.593329049112864881e-01,-1.430184134472333168e-01,-1.006174479071758748e-01,-1.044370374912399480e-01,-1.381713092363264506e-01,-1.116443984151714586e-01,2.234023788957751611e-01,3.367335992492885288e-01,3.173061282493990776e-01,-2.252178552786992041e-02,-9.757738686710626386e-02,-9.019532973938071407e-02,-1.419829079098348656e-01,-8.663012660782243302e-02,-2.676579704643528707e-02,1.620075063587034514e-01,3.502412745268157490e-02,-5.748192727651406375e-02,-8.085680812895807562e-03,1.551415587639965732e-01,2.228860465243228117e-01,-4.985152509041699057e-03,-1.317054719904395821e-01,-1.793265956272993844e-01,-1.554264453852267913e-01,-8.044094577726959572e-02,-2.388437392012953894e-02,1.108748452137437307e-01,5.627347122660233958e-02,1.153345820353900153e-02,8.689117025232077907e-02,1.189866776400669290e-01,9.445417728604486862e-02,-2.187282857923205648e-01,-2.221327701064727267e-01,-1.555057622205558154e-01,3.759217121240977788e-02,5.937214657804737450e-02,1.731631890772459062e-02,7.496455017029690637e-02,4.316643320516216908e-02,5.597840679541491588e-02,1.327349940743152712e-01,1.007579357632970019e-01,5.079702006643727064e-02,-1.818281044903528321e-01,-1.102963719339800641e-01,-2.235193837737686068e-02,-5.309784053278848465e-04,-6.543939579668840711e-02,-1.179984041850520166e-01,8.643443545278207962e-02,1.308135208445604381e-01,9.289878714737875853e-02,-8.554486256662018062e-02,-1.070461423657013134e-01,-3.501861996941139921e-02,-6.249666337987918110e-03,2.601268171250769104e-02,1.841948287765070996e-02,6.069959665329213716e-02,8.845926652923295774e-03,-1.321014132892730716e-02,7.726709960629385421e-02,1.207712727909029116e-01,1.087253396025086166e-01,-2.250716324743955166e-02,-2.017401436950734539e-02,-8.512870669548072006e-04,-8.465128078495101627e-02,-9.292280217698306588e-02,-6.867728576297540966e-02,1.557365401612568687e-02,-3.383702141875951502e-02,-9.240890589551227496e-02,1.732896932072180290e-02,5.763691947988182351e-02,8.958741501815660480e-02,2.679673307008672012e+00,1.252981667835042678e+01,2.947529590950668066e+01
-1.381735870105005759e+00,-1.378360802084283021e+00,-1.340476147823457032e+00,3.730539011108883751e-01,3.359255481786957986e-01,2.448556236667532027e-01,-5.420636342180418232e-02,1.928856471786239563e-02,1.317002693915935996e-01,6.154047480176278589e-02,5.563126533481788961e-03,-8.599161818441931893e-02,3.007275644278969984e-02,4.622324753878737091e-02,6.383892804715704528e-02,-7.736853150190824147e-02,-8.763494796177168089e-02,-6.976001107758673936e-02,4.143292064239090418e-03,1.337307060562908240e-02,1.807844612027370915e-02,5.034741724717599343e-02,7.014878002419190628e-02,5.808119173549899927e-02,-7.658711908915396410e-03,-4.869554889943979170e-02,-5.717757878688710382e-02,3.819467799225891025e-02,4.368901774775267588e-02,3.758727193309796544e-02,-1.103932214525726735e-01,-8.023498776957256606e-02,-4.321639598038537478e-02,2.584422581855775822e-02,-9.327287792304202792e-04,-2.677625653695724084e-02,5.230240347845103305e-02,6.612010186532446543e-02,6.824349821623616752e-02,1.156999169340722786e-03,-9.846410374584611477e-03,-8.430299025180956751e-03,2.165500209521090819e-02,4.645415504083753172e-02,4.933214998852767513e-02,-7.272102781466455168e-02,-7.958129468988746347e-02,-6.698365025755285973e-02,4.807849772118546333e-02,4.340308286600774723e-02,2.482120453364734455e-02,3.710717648751996750e-02,5.746265058315847690e-02,9.202206704321511110e-02,-1.511023323995069195e-02,-7.404816146149706402e-02,-1.359661707451373658e-01,-4.387297702291460127e-02,1.675800483725084847e-02,6.923786738452297751e-02,2.276450934501627818e-02,-1.560054587814576656e-02,-3.821519820949124957e-02,9.125112731766790719e-03,2.241878947552102680e-02,1.980957802089321901e-02,-5.164283161177934262e-02,-6.047131576776231671e-02,-6.351283124357748333e-02,9.822700417379447158e-02,9.513080257345092605e-02,9.709078815192398459e-02,-1.363775574458355455e-01,-8.550713057253553351e-02,-4.947165055360094182e-02,1.122473287124607227e-01,4.777904548951505265e-02,-6.461606017485017287e-04,-3.465101738199698883e-02,9.647089852827287274e-03,4.576052388893464551e-02,4.404882094193289521e-02,1.749619016630134596e-02,9.886769541274267707e-04,-5.766047901793847075e-02,-4.646245218301950364e-02,-5.012392407405029393e-02,1.366664917348605832e-02,1.063430683709546375e-02,1.540321121142493310e-02,1.832366469782558571e+00,8.250757092081476785e+00,1.959903805646805353e+01
-1.314380678157327953e+00,-1.257458378836569857e+00,-1.140837231142737718e+00,2.873845895212130963e-01,1.828543168794292129e-01,4.767545347548631657e-02,2.570306986330460342e-02,7.158519019891372570e-02,7.954070082331432534e-02,-9.484671898828522796e-02,-1.080635744167779827e-01,-1.041768597831531779e-01,1.144656504501084665e-01,1.438803005281965863e-01,1.608009248079012854e-01,-3.698976826535210760e-02,-6.439949473580763514e-03,-7.278094122870652598e-03,5.186983041895663893e-02,-2.108871786617211308e-02,-3.576853174595188284e-02,-2.028944505049538188e-02,-3.390135019036225744e-02,-4.522288017376627223e-02,-1.777535075126950373e-02,1.618142746710751062e-02,9.273764375582926184e-03,4.115957970459841603e-02,6.504223739816102079e-02,9.500506197899653837e-02,-4.796130600595777116e-02,-9.671799453390018952e-02,-1.181284587562409782e-01,-8.166095298196225649e-02,-4.892283116908911246e-03,5.765653858699416184e-02,6.838874893048353665e-02,3.362070955957918716e-02,-1.300936209187590360e-03,7.134536303197597240e-02,5.819966649358772337e-02,2.411385194840769478e-02,-1.369899091837795124e-02,-2.506443323865012451e-02,-2.926220812865189865e-03,-9.330716629229213188e-02,-1.016975687271791662e-01,-1.050559106069138687e-01,4.140485012800760450e-02,8.778641124363864567e-02,7.962240632926825823e-02,8.577254167986288202e-02,6.923245881019469972e-02,8.192309665340588576e-02,-5.153077182781747034e-02,-3.135228194665427154e-02,-3.780759404788203160e-02,-9.235478661597773531e-02,-1.367212440281733998e-01,-1.177607290427766379e-01,1.179284658358184003e-02,3.387658843912580431e-02,3.246964881850483708e-02,8.939150883359169020e-02,3.636396605958469586e-02,-6.277760518599571557e-03,3.185959790885384280e-02,8.330118516893086911e-02,1.086254945504449704e-01,-4.075817639686648425e-02,-1.422796036934522931e-02,-1.249703880207832588e-02,-2.284087973349912745e-02,-3.160556052919675368e-02,-2.582569432404299009e-02,-9.861191862900025792e-03,-6.227272233148337804e-02,-4.563990100471355948e-02,4.064204168992088112e-02,6.763681638226670678e-02,3.500349053516074727e-02,-6.533248811532831567e-03,-3.452483013427148917e-02,-4.698412560741124788e-02,-2.041367256599985539e-02,3.885118936109885346e-02,6.291861524948369477e-02,4.115273260848860762e-03,-2.229535439149549908e-02,-2.105367176878505941e-02,1.508530119797574454e+00,6.982566096133675515e+00,1.619127236001397208e+01
-1.221110814931732680e+00,-1.180945203379054842e+00,-1.115281147296734110e+00,1.617978675189181148e-01,1.092817925691654951e-01,3.599766742564409344e-02,9.223796981001397555e-02,8.428532605486925566e-02,6.061527003666640490e-02,-7.975352720846332066e-02,-6.305809159441315426e-02,-9.257141016698977251e-03,6.999821633844885427e-02,8.900085915391044156e-02,5.900911987872176079e-02,-1.163709772221366845e-01,-1.376018102220023798e-01,-9.730081762109234200e-02,7.475747758766154716e-02,6.410502299234105417e-02,1.824297958549714327e-02,-1.124225421743239306e-01,-5.084281826426483020e-02,-4.027551723613813708e-03,8.277554180101343029e-02,3.854463202177495218e-02,8.658972282286094696e-03,1.743146312669526798e-01,1.821714137928897581e-01,1.644006270652948465e-01,-1.133138065523259103e-01,-1.333434615499121956e-01,-1.166227229556277417e-01,-4.595135840943985472e-02,-4.118435481481416693e-02,-5.135947575012984184e-02,-1.071713776389284917e-01,-1.039838207456555835e-01,-9.776087276604424059e-02,1.420664502519047023e-01,1.345423565561232881e-01,1.281406727665574674e-01,-8.514514632772500480e-02,-6.559319094023566277e-02,-6.205521437746453622e-02,1.487420184421394398e-01,6.014914785974387335e-02,9.154935323231565975e-03,-1.485881231515885359e-01,-4.314351757031131829e-02,2.052410259332841311e-02,6.326578219855866214e-02,4.670158712560187192e-02,4.219180853099585571e-02,-8.907740214960463421e-03,9.058836909772341461e-03,5.210555970099410572e-02,3.129293911830284894e-03,-2.553869810921313710e-02,-1.011547735823202926e-01,2.888344330747173727e-02,3.583366290289048705e-04,-4.310088864441945005e-04,3.792328083039384762e-02,3.519289536715065891e-02,3.475395515533195867e-02,5.280953829917734051e-04,2.238906857875937878e-02,4.957703465613835098e-02,-6.249908136438989126e-02,-1.116800389593177421e-02,1.755133283306058514e-02,-2.050789355456964641e-02,-5.031472600896634562e-02,-8.114838341722266368e-02,1.136163403941791855e-01,7.801944145294631427e-02,7.893036331545007223e-02,-4.839441544791757421e-02,-1.797047826026231671e-02,-2.604457087883902192e-02,-2.605544132673372551e-02,-5.531451846714842413e-02,-5.364533968960977228e-02,-3.568373570253888238e-02,1.417968483870997096e-02,5.408075992350460520e-02,3.804597667112275677e-02,1.220883329687989967e-02,-1.769777726707905813e-02,1.957402370315950657e+00,8.906975161854060019e+00,2.098862467964334044e+01
-1.453311042222821925e+00,-1.462705468149855026e+00,-1.438393987807584873e+00,4.617407158680995605e-01,4.402435715285670237e-01,3.663432705249951571e-01,-2.600470224450590617e-02,6.380829841274258778e-03,7.468434160893017149e-02,-9.207633985081513373e-02,-9.871426877603987904e-02,-1.188358965737351391e-01,1.575175748786347696e-01,1.711603474960166904e-01,1.782417922608858230e-01,-1.317127932204512908e-01,-1.265248842394985085e-01,-1.141719774474384830e-01,1.699810580401560356e-01,1.162361921725389435e-01,4.193094152454227702e-02,-2.181335741461389033e-01,-1.631852267043996385e-01,-8.488100849288816863e-02,1.724624084943446878e-01,1.529006849715722205e-01,1.290718776414508107e-01,-1.959708034978956473e-02,6.656915248491973754e-03,2.055745128154370938e-02,-8.370294413252622745e-02,-8.864893176878430037e-02,-7.191587869106191855e-02,7.110290177498299058e-02,4.553920320290773260e-02,9.341264588421424597e-03,-2.333310107560085736e-02,-1.611382151667588997e-02,-2.115253815361037987e-02,9.377471493510126932e-03,7.238988965635712036e-03,2.603050623844770789e-02,9.495681299981381662e-02,1.189086509188816282e-01,1.075253488667551743e-01,-3.902827223719564781e-02,-9.949346120419735873e-02,-1.240880001690982115e-01,-1.066261119840790222e-01,-7.114596057896850623e-02,-5.655522411040270203e-02,-5.479802727687224477e-03,2.015044168852782661e-02,7.025406643496311110e-02,4.302565686313625237e-02,1.417633029180886397e-03,-4.478969686374996428e-02,-2.678526818947027030e-03,2.472046705959415891e-02,3.308559156180872901e-02,-4.605335281682461368e-02,-4.393049818861972239e-02,-1.578362974712761713e-02,1.303843349737447976e-01,1.272557723005680874e-01,9.050020629227382984e-02,-4.313567213912836845e-02,-3.233859144278092984e-02,-1.509379193716404305e-02,-4.490710660452559150e-02,-7.734964186599596614e-02,-9.044450232057409111e-02,4.163023229736647485e-02,5.742626076014727132e-02,5.288650191889764096e-02,3.114842066683244301e-02,1.640460343710144556e-02,2.164472166827238059e-02,-6.162301502668762754e-02,-2.336353979733850339e-02,-6.919082366854982166e-04,-6.187374364364221779e-02,-6.535572138157540178e-02,-4.769077458277731080e-02,1.194554105415280010e-01,8.336995053131458777e-02,2.135148276331129066e-02,-4.330097812811311425e-02,-2.697802631978448579e-02,1.157026302757492922e-03,1.703444774430402209e+00,7.656942801284058575e+00,1.795563870544881979e+01
-1.635242848853761144e+00,-1.661578551278254379e+00,-1.648009737792480722e+00,7.540991128238639929e-01,7.972857600196777694e-01,7.665605372797921202e-01,-1.515672432545352444e-01,-1.762823557471679681e-01,-1.502771374347191546e-01,2.190636577045693145e-02,2.425554510851245238e-02,-3.104591568785897149e-03,-5.253447309309515478e-02,-5.361348558425390459e-02,-2.426338844631058950e-02,7.072177528279209591e-02,9.584569163848367934e-02,8.148037935399482512e-02,1.727351279141306657e-03,-2.127788559055395282e-02,1.480985560322009044e-03,-7.465227753942127453e-02,-7.755660416281688618e-02,-1.227599128797002281e-01,8.792865113227960050e-02,1.055796629592043595e-01,1.451440202100327814e-01,-7.497134540334469965e-02,-8.656318027310894170e-02,-9.457995836412941282e-02,1.130344882507757082e-01,1.245435072532167925e-01,1.170039728045475652e-01,-1.121685966221023512e-01,-1.145829958415728045e-01,-9.737818765407059429e-02,7.324321292701503616e-02,4.017534870838330996e-02,-1.648206870244968685e-03,-2.421452756205309115e-02,9.223705504236848901e-03,4.749769439563942403e-02,1.898984299416329666e-02,3.205452750242099042e-03,-2.017024300022774233e-02,-1.073594651977914476e-02,-1.289832278847579880e-02,-1.022420923945376557e-02,-4.116915352901819036e-02,-4.133909179815555002e-02,-3.941283124944396782e-02,4.705218329324546006e-02,8.299900335070091451e-02,1.139470609566199943e-01,-4.974483688737510630e-03,-4.298394829830178010e-02,-7.521761238036139829e-02,6.683034459962651497e-02,7.115250073678296150e-02,5.916967355536909001e-02,-2.003268251822173107e-01,-1.828285322775546617e-01,-1.192626475452951001e-01,1.993960443796942428e-01,1.944367667727205096e-01,1.169155230060016787e-01,-9.447919409315699846e-02,-9.931474962095353243e-02,-4.101880021093134987e-02,5.348704268404336215e-02,5.431494144667737417e-02,1.621234741380700103e-02,-6.611372318374787727e-02,-6.849367809232495552e-02,-4.279093716908241585e-02,1.000199427063705737e-01,1.012300126967329295e-01,6.834070286397518623e-02,-1.164010364278187382e-01,-1.060470302989701130e-01,-5.692990969668870749e-02,4.659564676007370981e-02,1.428324906225477732e-02,-4.697299180002818819e-02,-1.171192603587513023e-02,2.718530238889698206e-02,8.379281106665817380e-02,1.653388504397274028e-02,-1.055502219784874754e-04,-2.332782237370038814e-02,2.182605412967299596e+00,9.586037890270096895e+00,2.095526846804115451e+01
-8.389797053889503919e-01,-8.336473327994687876e-01,-7.984722887512841760e-01,-8.980165779918987401e-02,-1.046985883660626615e-01,-1.247087429839268263e-01,-4.270651593294167575e-02,-5.247574515938945722e-02,-7.205860636422525833e-02,-1.477439223024853421e-01,-1.206240483411358255e-01,-1.056928332303336965e-01,6.949800004338115011e-02,6.983333203063256389e-02,8.625107043434301901e-02,1.280333053137258925e-01,1.466083026064196326e-01,1.227145952463185030e-01,-1.580065180896136900e-01,-2.524127177779796338e-01,-2.822988952540853580e-01,1.104395308537131637e-01,1.725974002287252174e-01,2.023944825267842973e-01,9.279328770627297274e-02,1.102473338215341908e-01,9.434974350616887051e-02,-7.220199503254984275e-02,-1.153752919077197514e-01,-1.224943639546602486e-01,-4.856024536409615788e-02,-2.245941561011107965e-02,1.627531402546910852e-02,3.621099627396605347e-02,1.104536441247944839e-02,-2.434507161783931034e-02,-2.674730467385228252e-02,-5.325325303196809523e-02,-7.919626837056628621e-02,-6.132096327263468483e-02,3.949336329859375050e-02,1.156221174631981569e-01,-1.177327613794020428e-01,-1.481666582340078753e-01,-1.611166037628832259e-01,1.701146940072009173e-01,1.262174961674091267e-01,9.193942788334906469e-02,-1.920125516978029440e-02,6.971384611704514907e-03,2.480550891353429724e-02,2.955288051590447898e-02,3.027227438419114944e-02,1.108569192484556987e-02,-2.888598358914133343e-02,-4.899055416543483116e-02,-4.276807192138988578e-02,1.076331823014795713e-02,7.394364755971082059e-02,1.145411235144767892e-01,4.019181002355748378e-02,-3.977297620236151798e-02,-1.015700569556666627e-01,-8.117719092171703232e-03,4.731997643096685913e-02,6.920692534339986657e-02,-4.376424774907990839e-02,-4.636251220920880461e-02,-2.295940579568907236e-02,2.947301927806348070e-03,-1.283098728457464192e-02,-2.575335822585590045e-02,-7.433301138222378479e-02,-7.842127968023375473e-02,-6.644060211591901188e-02,4.337262872609460446e-02,6.975664191187538887e-02,6.183078407128991122e-02,7.090649041824292897e-02,6.782084055503069010e-03,-4.464557275622737381e-02,1.056346566137086104e-03,8.426951804338157770e-02,1.490592079239421441e-01,-3.454547499318831594e-02,-7.042857948340977559e-02,-7.139041058941184015e-02,6.979561266981170256e-03,4.768448206191664221e-03,-1.397434812724436884e-02,2.834861664025043915e+00,1.352412354403537087e+01,3.208506967184121805e+01
-1.461180272040487171e+00,-1.467038160484591902e+00,-1.434730667692454276e+00,4.126602308128508589e-01,4.314276100771800015e-01,4.013982720528240788e-01,1.130329763934191101e-01,9.730447842949609127e-02,8.404400818590859745e-02,-1.263272194259643377e-01,-1.383712199275432819e-01,-1.443114972294092524e-01,5.645283515039353772e-02,8.136246127198955291e-02,1.104570740063705453e-01,-6.467560284079194866e-02,-8.626071138612396993e-02,-1.021208266612772947e-01,5.001216101042738060e-02,5.652369966885301827e-02,4.346124162207715136e-02,-1.703758524302598221e-01,-1.528328489451762362e-01,-1.071941070942067226e-01,2.278925772686970774e-01,1.872249772904230614e-01,1.280364297704381094e-01,-9.778677588403359398e-04,1.493179592373971784e-02,4.155658232870882568e-02,-1.957751133410694233e-02,2.400227758301713525e-03,3.858050647778927741e-03,-2.999429031341246596e-02,-2.532937824749982580e-02,-2.291526282577238845e-03,1.804288829134777575e-02,-9.199236341493320993e-03,-3.736036157646945716e-02,1.265659308318932939e-02,1.343823927816074904e-02,2.520921902530242026e-04,-1.100161661233944876e-02,4.540059583006598662e-03,3.745221245865009568e-02,-1.535315201605984801e-02,-1.388647073251992638e-02,-3.650074290878686095e-02,-2.889433237979890934e-02,-2.847467621084143544e-02,-5.464943454460675573e-03,1.253080527617802253e-01,1.273274829051574963e-01,1.066960811595801528e-01,-4.283458482833807368e-02,-3.841192543622197475e-02,-2.636003139642862161e-02,-9.675535734497488216e-02,-1.150419694259546127e-01,-1.097691806469412307e-01,-8.302784113680818784e-03,1.279910030283333555e-02,1.387746222944167759e-02,1.026285421288278266e-01,1.060318414813830878e-01,1.028788574105768683e-01,-8.867902606560307613e-03,-4.194459905383925158e-02,-6.364266820111395828e-02,-8.584342028611002817e-02,-7.372866576677673811e-02,-5.385739357845864550e-02,2.390647784679877236e-02,1.856754328202160978e-02,5.890774651669983264e-03,6.085634956797019574e-02,7.150680619879784539e-02,7.133096316569950690e-02,-9.355237616728566408e-03,-2.088037883395148925e-02,-8.097385431811616324e-03,-8.618361810113642218e-02,-7.623056644448086838e-02,-7.308632612259935435e-02,8.658302667152958931e-02,7.122380650529040735e-02,4.405354435575242755e-02,-2.330752231859221230e-02,-8.791136323064933922e-03,9.684727545177932925e-03,1.904522220730790805e+00,8.729416892177491505e+00,2.061345574718072271e+01
-1.531842029454028253e+00,-1.522460741416801655e+00,-1.481676388880437845e+00,5.632145323261109615e-01,5.495354149385001108e-01,4.945425766338367168e-01,-9.933395192203613167e-02,-9.743513332936334925e-02,-8.419951420852647694e-02,1.153038958536993378e-03,-2.063736967032897551e-02,-3.601523464387079015e-02,1.229004613756598113e-01,1.604321912671689832e-01,1.728132409646588041e-01,-1.475273804954750634e-01,-1.570520644195345650e-01,-1.274185136769183935e-01,1.481914869804133450e-01,1.278902353489108634e-01,6.654498548583683004e-02,-1.163040286366366638e-01,-1.266321316382654494e-01,-1.146589541317868111e-01,1.198860238280066853e-01,1.721548034405454841e-01,2.100932856187422426e-01,-8.870640379464704572e-02,-1.133363353273240115e-01,-1.168568820037473449e-01,5.042591293120159135e-02,5.657430482216448120e-02,5.757913374305501097e-02,-3.547295201309053764e-02,-2.465378676542289912e-02,-2.837216170561786960e-02,-6.575677602440202496e-02,-1.071883340500237036e-01,-1.182729706653946333e-01,1.008518417499076614e-01,1.122965256806194162e-01,8.997552450228489540e-02,-7.039401338593538615e-02,-5.723265176072149518e-02,-2.470521147630248826e-02,1.891618594971453474e-02,4.156917003424829421e-02,5.587662439690822130e-02,2.759715359282439301e-02,-1.092859621588901028e-02,-5.287082216745216112e-02,5.221900687112724510e-02,7.236018327785849469e-02,9.987480243566948523e-02,-4.133813434384235597e-02,-3.074158618074051066e-02,-3.238654334445837529e-02,-2.107945685944283970e-02,-5.308929044893184734e-02,-6.853874333994515455e-02,-9.545461233557116232e-02,-5.967164960985954503e-02,-1.574787848333834492e-02,2.115040761748149256e-01,1.827776701436560347e-01,1.313808539209007920e-01,-8.795539519302311704e-02,-9.329644222190827674e-02,-8.246812320105127714e-02,-6.054095872331818895e-02,-3.412185628389146491e-02,-2.769452552035709877e-02,3.962088167425677904e-02,2.784112181136506187e-02,2.851367791538114357e-02,6.332402036622691854e-02,5.662184035682506222e-02,4.915663315156836022e-02,1.237880647621323119e-02,2.291506380399466886e-02,2.284479047688365780e-02,-1.039850775232363939e-01,-1.058971803900473629e-01,-8.075055629664619483e-02,8.076136249201823492e-03,2.860725134423175442e-03,-1.853975493455376627e-02,2.567139895147464365e-02,2.873172222593037284e-02,3.211087573985010185e-02,2.293859464901064182e+00,1.019849424839121177e+01,2.288568466451369332e+01
