-1.684673925488157309e+00,-1.694757313887339301e+00,-1.653014864504494863e+00,7.854875236632923308e-01,7.792602718437388054e-01,7.004314532983244579e-01,-1.676636055463578134e-01,-1.550697000741765863e-01,-1.150046655307654930e-01,-1.136110775159235586e-01,-1.085423885867107113e-01,-8.986685555292232841e-02,3.419657778415960414e-01,3.322899604542346452e-01,2.661815072079907751e-01,-7.575449372142752102e-02,-3.672964250844663880e-02,1.235375960245006094e-02,-7.544617075645622395e-02,-1.316483959959863503e-01,-1.365257424576054313e-01,-2.017111005627655607e-01,-1.737407908770086662e-01,-1.522872143955966984e-01,1.708431898092477585e-01,1.619557932342386153e-01,1.311240965038854012e-01,6.199616988438598486e-02,8.660563464183315685e-02,1.147611747383853326e-01,1.108089001477696733e-02,-1.540742922024243913e-02,-5.952706208299204244e-02,-4.284561353183473364e-02,-3.655094979860105259e-02,-1.293749183050977788e-02,5.069875662707873376e-02,6.974655404849203211e-02,6.450742749337275150e-02,-9.483638812629477388e-02,-1.354596340110319486e-01,-9.882588760876888367e-02,-7.354781197493040490e-03,1.820506747024218386e-02,-2.860456039733789979e-02,4.211954912950073571e-02,4.009494987746809597e-02,5.744689922131756415e-02,2.476408041048884456e+00,1.118531593691147386e+01,2.510022048964944474e+01
-1.190446678019636773e+00,-1.122100096239074363e+00,-1.043070895118306973e+00,2.885961583236810180e-01,2.202131580094660035e-01,1.542008611891434733e-01,-1.136432905737766869e-01,-1.054021180932685903e-01,-1.124747518236143412e-01,-5.495015019025315840e-03,-2.549059789326797373e-02,-2.150482895329135918e-02,4.552990741238801403e-02,3.356765747890644996e-02,-2.254922624872176748e-02,-7.316025363354521083e-02,-7.138232852250771254e-02,-3.349590363008325689e-02,1.280276810362009077e-01,1.079825260542696397e-01,7.153290293952074830e-02,-1.986318527051221250e-01,-1.330205989499441688e-01,-7.620228006989100689e-02,8.760849191704873917e-02,3.745028859864308474e-02,8.348016629875483138e-03,5.971266629400966836e-02,7.903897064886546142e-02,7.646782250335407149e-02,-2.188713113676320210e-02,-2.222096339035887266e-03,2.876234429381427718e-02,-7.550418034538042278e-02,-8.395347490490520648e-02,-7.704504287766332504e-02,6.412045568437177434e-02,5.384641385432462068e-02,1.819069570550803719e-02,3.419452164015473333e-02,1.762822244778335795e-02,2.880458275502557550e-02,-1.427210770565704237e-02,-9.286135495137673099e-03,-3.190449687136072410e-02,-1.464247720973780968e-02,3.225322760101068977e-03,3.203021867549355611e-02,2.295760266930580329e+00,1.095829044959856446e+01,2.641634579945321448e+01
-1.357783536400636759e+00,-1.362430999566559109e+00,-1.328055565254591341e+00,2.494708037502965381e-01,2.883277532491164696e-01,3.001537787898789778e-01,8.410148199155649540e-02,4.929604491396231969e-02,-1.038630910074407263e-02,-1.884699385796145821e-01,-1.584246698263896969e-01,-9.834253572285012179e-02,2.805339217900847393e-01,2.352792097495007839e-01,1.676946829119021209e-01,1.446755140113419394e-02,-1.116426564970983762e-02,-3.758060155996575252e-02,-9.796283921287295138e-02,-4.218249371662406016e-02,1.709718335763783098e-02,6.303228833749814630e-02,2.862667288798492055e-02,-2.305305023136820092e-02,2.413297671426479531e-03,2.080260604843173211e-02,6.584979175791223771e-02,-1.409589337054908964e-02,-2.371171051729598772e-02,-5.911445491899697258e-02,-8.462844629425625431e-02,-1.062520881470296191e-01,-6.908636957316670324e-02,-9.278859921014348533e-02,-9.286274927143418206e-03,1.338989055388177009e-02,1.087555623555872264e-01,6.475643864657995574e-02,2.160860435308152583e-02,3.294882260828396053e-02,2.233871439812711718e-02,5.565141773947090975e-02,-3.566338533675685041e-02,-6.219873294572279138e-02,-1.085905987107040754e-01,3.592347205104688690e-02,6.641655554754211099e-02,9.290570063247703680e-02,1.570194703682747273e+00,7.408090311340977507e+00,1.758343818596262054e+01
-1.318025636705812964e+00,-1.085491833647044713e+00,-9.345132344499809118e-01,3.107354106933478133e-01,-4.514384707515418232e-02,-1.830491418890511646e-01,2.973870599002206155e-02,1.296413257597757163e-01,9.202666437049791814e-02,-1.198478327773450092e-01,-3.816142190831029596e-02,3.771462074247048518e-02,4.385096434157911838e-02,-5.510567784643683603e-02,-9.355046579390297046e-02,8.398819997350427669e-02,5.685923958435414732e-02,-6.167162330402332568e-03,7.552352825443399420e-03,6.374665256120298773e-02,6.329721171101176935e-02,-1.736582431070424204e-01,-7.785038447622261507e-03,8.360093027809498145e-02,2.321529362738699864e-01,-6.328782474320544804e-02,-1.619688098866223502e-01,-1.342104933554226498e-01,-9.054839774285814574e-03,1.712270942126911319e-02,-6.783637447716696356e-02,-1.525547111052984357e-02,3.398490535817707409e-02,4.646274271999755595e-02,-4.349445205853322977e-02,-5.875388496201277427e-02,1.365118466437048291e-03,5.509494443018218141e-02,5.991482503827109951e-02,8.345524182255108225e-02,1.123455798258029686e-01,1.009980048000191644e-01,3.741167379895176531e-02,-3.563467390435094695e-02,-7.373951200184064581e-02,-6.297122953101060017e-02,-1.910827334018271734e-02,2.324212519817188058e-02,1.837084894332662310e+00,8.742171885405065623e+00,2.072346918986608344e+01
-1.360442206883074379e+00,-1.325978823661015715e+00,-1.243355566737333495e+00,3.710093629424151551e-01,3.144823654049697659e-01,2.080142270982821562e-01,4.479601045098955542e-03,-7.485610475740495789e-03,9.305310021690420307e-04,-7.819859123247058230e-02,-4.137911551287386247e-02,-3.137759645397082686e-02,8.770541374356866093e-02,9.240945176791739990e-02,9.909076895126894824e-02,-8.919387435243049389e-02,-1.102822784294538588e-01,-1.124602855381567484e-01,7.574156546393065459e-02,5.467490099065971942e-02,2.556065769774662835e-02,-1.414121802632021807e-01,-5.741489814976299955e-02,8.751319283569812188e-03,1.116809656699599973e-01,4.138620289646902789e-02,-2.483535054000640327e-02,-7.768533221224308179e-03,1.083745535518348957e-03,5.209224025335098401e-02,1.334363879177740131e-01,1.507496751309450322e-01,1.028221575310940133e-01,-2.310568900922582158e-01,-1.869117724245158707e-01,-1.138040920341180512e-01,1.473622955695733372e-01,9.179539124299038177e-02,4.632994979230400934e-02,2.116088280229612775e-02,-2.003345804737531599e-02,-6.541812608656694117e-02,-1.822051942484414350e-02,2.757688645581640383e-02,6.578558355690240778e-02,-2.613816043477076856e-02,-2.455496579482223385e-02,-1.802805887712566682e-02,1.621947848999693909e+00,7.807007708434849924e+00,1.891296881436947075e+01
-1.241546142037736278e+00,-1.168388877752968957e+00,-1.079011697521072843e+00,1.941121598592156772e-01,1.185058268107957724e-01,4.873843364970004144e-02,1.034439520070959129e-01,7.868442064475476838e-02,3.746322959119203350e-02,-8.366303046642793728e-02,-4.952754051275164854e-02,-2.110840123603405574e-02,9.005207600219766739e-02,9.328727142999415634e-02,8.180163194714246133e-02,-1.407031567067391908e-01,-1.421945342933958745e-01,-1.215238695979951183e-01,4.154515717119065116e-02,1.821993939562136303e-02,4.548023849001808089e-03,-3.200816824285964562e-02,-9.706902064188635201e-03,-5.576418260128255394e-03,5.140494802630636573e-02,2.939115778621675945e-02,1.629438390082411231e-02,1.964407475554531129e-02,2.040453360142314640e-02,9.902538780490178355e-03,8.173265894948820998e-02,7.261347780798518836e-02,5.690192563540865528e-02,-1.573057437340983633e-01,-1.042971825377751183e-01,-3.673716016429640074e-02,1.140026137957490804e-01,8.488677536068901797e-02,4.794949859487943056e-02,2.093325551240810337e-02,9.634997339341990451e-04,-1.262300257518461470e-02,-7.359533345810254090e-02,-7.053835682171930022e-02,-6.701969938541747773e-02,1.204427982724944231e-02,2.777510790030415441e-02,4.006344827568266570e-02,2.426347483377718994e+00,1.108782221123986389e+01,2.602314259085265036e+01
-1.106217149859489712e+00,-1.106121025150284876e+00,-1.092515883359642004e+00,1.044074929251026795e-01,1.081693554939217455e-01,1.152460266149927942e-01,3.819290484567526567e-02,4.564420503090255155e-02,3.429925324495886052e-02,-7.141015505648413975e-02,-9.023241109038036833e-02,-8.731433048956563359e-02,2.666611738919589039e-02,3.652942853387107502e-02,2.997416808635740976e-02,3.521516257627701346e-02,2.626930111860799333e-02,1.549022436942407675e-02,-6.800262183683289385e-02,-6.272948966759635259e-02,-4.346544034160759046e-02,7.231664625863014340e-02,6.069470706719336250e-02,2.988074241472338244e-02,-6.300376309606681158e-02,-6.150984187885546323e-02,-4.857576815572313411e-02,8.817465259287973756e-02,1.019400887690505159e-01,1.089316576705739170e-01,-3.122668972985024813e-02,-3.127975686971633945e-02,-3.153823982326337677e-02,-5.765760986068271116e-02,-6.526819024396994517e-02,-7.469248098092542976e-02,8.598360875498542791e-03,2.368236070163480880e-02,4.133916357087880772e-02,7.181382568857040682e-02,6.753177532514267889e-02,5.553122127695364618e-02,-8.762483937060014383e-02,-9.583513830541028067e-02,-9.251303215323766760e-02,3.995137970654234760e-02,4.268884880730353798e-02,4.006399162900717986e-02,3.025347717943645431e+00,1.382420258969990989e+01,3.256635855792735157e+01
-1.078616616945001105e+00,-1.054895324701387915e+00,-1.001685217920243343e+00,6.512527787493768705e-02,5.707030664597943781e-02,1.151696044109877699e-02,-3.948334703980403704e-02,-3.951255469359001016e-02,-2.264839762718187308e-02,-8.415412593409457576e-02,-1.211867235357608069e-01,-1.541085420697133057e-01,1.582165273959268148e-01,1.834748934160657652e-01,1.756536571779672429e-01,-3.612758894278275679e-02,-2.075397170865883253e-02,1.606105616922361146e-02,4.257414481095782993e-02,-2.925485497248372490e-03,-5.218975164012937956e-02,-1.168186155247220998e-01,-8.099078933205124120e-02,-3.871293768225490817e-02,6.973354495849293233e-02,5.465438362841117809e-02,2.587119353780550912e-02,-3.762878118705315772e-02,-3.877425723569150051e-02,-1.974315304463347687e-02,2.695463323630933883e-02,3.018107123407365658e-02,2.495626649531837785e-02,-5.557190540101120818e-02,-1.228278772134484310e-02,7.491765580518530004e-03,4.224214465522817957e-02,5.696644794927645033e-04,-6.859344700405153872e-03,1.039105436228712348e-01,1.080166881181683219e-01,8.244085746464768771e-02,-5.312268091659309854e-02,-7.106368530642909187e-02,-5.375281766780448667e-02,-7.020554832376138532e-03,8.598320838741388417e-03,5.851845610348909051e-03,2.582034837403378358e+00,1.217453412088301690e+01,3.019797596433627618e+01
-1.208995814097928445e+00,-1.192070171667893197e+00,-1.166594885994188813e+00,1.867920261527902526e-01,2.049881096282649695e-01,2.203675080433060984e-01,7.217603703664962622e-02,2.039979053899449932e-02,-4.395506007114437924e-02,-1.652411873621817961e-01,-1.795733433542383850e-01,-1.513950191356489561e-01,1.347932652053503710e-01,1.994669801776355333e-01,2.059584555093404989e-01,-1.829351710436617198e-03,-6.216286033336269889e-02,-1.046831438914588158e-01,1.953197656850155783e-02,2.636198682627657539e-02,3.994124468542464834e-02,-1.690315798238846423e-01,-1.379299772131652724e-01,-1.290972792922984724e-01,1.764628422022853360e-01,1.541507281471703461e-01,1.476924374919515448e-01,-2.231408088715979270e-03,-9.884148455202693834e-03,-1.208447604877208731e-02,-3.292592782799534656e-02,-1.218925966995335411e-03,2.599777566448873214e-02,-3.545528694984085433e-02,-5.923234434133979598e-02,-7.680523952956680445e-02,-1.808540119844620486e-02,-1.024635325455998218e-02,1.654491562662326401e-02,7.815534693322442883e-02,1.114308918925036446e-01,8.215245214339203517e-02,3.274241062712247158e-02,1.591243139047207600e-02,3.180854794439257061e-02,-6.679140705320829596e-02,-8.034289427607499423e-02,-8.580645786267107611e-02,1.692112352243417828e+00,8.121994589875228598e+00,2.015734343079627422e+01
-1.320168861018387041e+00,-1.312006803097474084e+00,-1.279682082714516111e+00,2.329311567882957068e-01,2.248379486074862654e-01,1.984108653243062403e-01,5.720243088243465168e-02,7.402002870439960969e-02,9.002636017383292000e-02,1.023138150628111892e-02,-3.648663440654870832e-02,-8.674147366150133931e-02,4.773194470972635245e-02,8.703408728654081494e-02,1.129047319213718897e-01,6.394990658480649570e-02,1.630140604083417377e-02,-8.616470119788086773e-03,-1.233836672396309980e-01,-7.180266637518263606e-02,-3.437715524027988578e-02,-1.243271973957700005e-01,-1.073537807346909567e-01,-1.040293914225084992e-01,1.559575606505061995e-01,1.075449151379735263e-01,8.195597440939607348e-02,3.402493601911590199e-02,3.980574741495425395e-02,3.663341194512534371e-02,-8.225619031727682967e-03,-1.791150934001063590e-03,3.809950244451607709e-03,-1.133626948956560493e-01,-1.224451081162551830e-01,-1.102955005767240204e-01,4.113386412822536004e-02,5.887276692471420797e-02,5.822682675680459358e-02,7.990586948470773665e-02,1.016813384776504153e-01,1.074784604607798427e-01,5.221396759927388054e-04,-2.815487409717933737e-02,-4.694644103097846133e-02,-3.399763770674827518e-02,-2.996318652088637152e-02,-1.869085743013468998e-02,1.900941601154956695e+00,8.731712948077726466e+00,2.100228177499453253e+01
-1.721280317832223794e+00,-1.764072093126192620e+00,-1.764094659891670913e+00,8.686402561229108477e-01,9.112727321824027893e-01,8.865037852384171080e-01,-6.970980442123768384e-02,-4.705669512693582551e-02,-9.216634151629599092e-03,-2.228580881770334254e-01,-2.703945844756689976e-01,-2.809202596220273795e-01,2.653157335268225836e-01,3.014828812409815484e-01,2.784652858220977301e-01,-1.973194700651957900e-01,-1.938305044173026237e-01,-1.409865428858542435e-01,7.796928272483212574e-02,2.023278688374709200e-02,-4.751609353090862492e-02,-3.888279303886746363e-02,4.724181010871687098e-02,1.009625475917224624e-01,1.383612178442629372e-03,-6.055571461269582817e-02,-7.496624132914382621e-02,9.507377334261289670e-02,1.041920503773697410e-01,7.821047440751184576e-02,-9.016002559038273356e-02,-5.932517842640711719e-02,-1.146291227430094872e-02,3.047318688322955826e-02,-8.156817779055200793e-03,-5.673442263490269255e-02,-5.923878703050264316e-02,-3.144696481207340938e-02,7.667155725564147976e-03,1.119413490840436703e-02,7.287257343067073123e-03,-1.063428767443044820e-03,8.635210440847515545e-02,9.335723867381313934e-02,8.743400942900851625e-02,-3.652822741131381279e-02,-4.987300216479197135e-02,-5.199401806495812517e-02,1.993723188534887392e+00,9.091859487961489350e+00,2.049961659073699138e+01
-1.405753312072233641e+00,-1.419157334960740036e+00,-1.405475866305348376e+00,4.361989260249614642e-01,4.525103458286231506e-01,4.372585870866958491e-01,-1.045961457924014099e-01,-1.082394447081344024e-01,-1.097834230114417275e-01,7.318146813614878621e-02,7.008550904637686485e-02,7.925406051078429104e-02,3.934027052054306361e-02,3.780110381015159421e-02,1.680149213099929942e-02,-7.760274336117391203e-02,-7.631137327071413345e-02,-5.671272614833640369e-02,-1.278267946795785641e-02,-2.985769273228307957e-02,-3.932891950488336813e-02,-4.504440632085292967e-02,2.605894582556748593e-03,1.920998638972083034e-02,8.602713576117182459e-02,4.542275336874709857e-02,3.000462128032790193e-02,8.165203465363062019e-02,8.294152638391767696e-02,6.584271809550161503e-02,-7.023449190026431754e-02,-5.638356121986325131e-02,-3.150435278386239102e-02,-2.699708206852702991e-02,-2.987739304337568708e-02,-3.127011499685572460e-02,-4.336132279516750204e-02,-6.808014948627807636e-03,1.806730923193225827e-02,8.866462623220029704e-02,4.238661664242462934e-02,1.119910184911807050e-02,-2.530895624015298481e-02,-2.703412347772796327e-03,6.728394885866329465e-03,6.836256776392692081e-03,-4.242479708270730648e-03,-1.016933656485973468e-02,2.089632907554805907e+00,9.335376828609501132e+00,2.143150411436326408e+01
-9.353374377416794339e-01,-9.377842462521631672e-01,-9.421379654749135746e-01,-1.821065365816941853e-02,-2.347805326275548255e-04,2.474697558536565270e-02,-1.062375521723529226e-01,-1.024915131192277312e-01,-9.814421677238449604e-02,1.083440163372382734e-02,1.614034107792626169e-02,1.507081925221449847e-02,6.517978267359009203e-02,4.802705555104629792e-02,3.563814488586537071e-02,4.086540035173456820e-02,3.616043772752546709e-02,3.204419267850309311e-02,-3.803310735878790566e-02,-3.599775458240808690e-02,-3.434751049701368492e-02,1.754728100111686492e-02,2.810959597133301513e-02,3.838392691119553446e-02,-5.335489372285395077e-02,-6.649118028326081453e-02,-7.830367557041423288e-02,2.720317873150204444e-02,3.919431522341496055e-02,4.595859755463300306e-02,-1.495905542090286353e-02,-2.325412681267201992e-02,-3.025930570846393011e-02,3.052992729586255158e-02,2.842146333562277707e-02,2.376182923236867459e-02,-4.748901090875931597e-02,-4.589774701144169050e-02,-4.211995828246108825e-02,2.491536680787157648e-02,2.167545106350657336e-02,1.997619055562501258e-02,-3.455144410110512487e-02,-2.792194042282676592e-02,-2.175596816416358950e-02,3.121572452140301476e-02,2.244355634945520775e-02,1.156858983078813512e-02,2.688207298133822754e+00,1.242157947905238835e+01,2.935219102262990631e+01
-1.332014707862789527e+00,-1.285463543803180064e+00,-1.191796192277545519e+00,3.325235536529254077e-01,2.904096866468474092e-01,1.965299027507413365e-01,1.900512139153001656e-02,-3.609587617921317798e-02,-4.815695148325892933e-02,-1.313734677146984609e-01,-3.760432688577097782e-02,-1.033333199749798120e-02,1.329754580943315057e-01,8.095010265272753469e-02,5.805446989963409382e-02,-5.326139395636362434e-02,-5.428032077583840737e-02,-5.961750931338981319e-02,1.022164989188812517e-02,6.201082046962429727e-03,2.771628430085958539e-03,-6.950879229945285120e-02,-3.931609242346113114e-02,-6.114548805085544270e-03,1.078648369201707924e-01,5.947427737304829265e-02,1.807482574367115513e-02,7.189379407479726258e-02,6.760235872209664765e-02,5.267210122584399523e-02,-5.051238409291777115e-02,-1.781576715199624864e-02,4.461009648089308069e-03,-1.134247877213242078e-01,-8.130721331404687502e-02,-4.168801068016001615e-02,3.115183322711441438e-02,-3.578764332651766800e-02,-7.062391854458012486e-02,9.671536586080187181e-02,1.731113193299743114e-01,2.139867509341019658e-01,-3.610177776809140454e-02,-9.306938739699670282e-02,-1.516861926078910128e-01,-1.602129483826525772e-02,3.106735657053342082e-03,3.356629234870863593e-02,1.978729511985320766e+00,9.029707937617034830e+00,2.091084140587778251e+01
-9.655805474841050451e-01,-9.080819619308408974e-01,-8.572117359626740818e-01,-8.075230362061697198e-02,-9.726513314855546322e-02,-9.345230603926921176e-02,-4.680300820790687238e-02,-9.123155038595771871e-02,-1.269192097665009233e-01,-3.126759194499234562e-02,-1.296586289323439778e-02,1.572886052657178433e-03,7.009292224916252589e-02,1.637419018546388411e-02,-2.924809563372031060e-02,-2.687555175287272002e-02,3.053349699532687759e-03,1.517733973104426655e-02,1.119698009874520450e-01,9.363712239001931170e-02,5.989922864071287045e-02,-9.511535719902387831e-02,-5.065581322352534499e-02,-1.633440551758184520e-02,6.493489234633893770e-02,2.184509522544011290e-02,-2.390096986514998138e-03,2.839694165066702219e-02,2.049332710562672827e-02,2.472307668842534112e-02,-2.719038060658827277e-02,-1.036947907629654810e-02,2.894201785631006323e-03,-4.168710149032635315e-02,-2.383552357668950947e-02,-1.839327657849720854e-02,3.085631981954651062e-02,7.009370887388856330e-02,8.189777175814365318e-02,4.704859025205034712e-02,2.615932035674359973e-02,1.228231167369710913e-02,-4.270916475128200274e-03,-2.603140732441970584e-02,-2.626480383871623858e-02,-3.367057107220082501e-02,-3.114799733355533978e-02,-2.817158389881803740e-02,2.907459435756133637e+00,1.337949266092042322e+01,3.073572728936213849e+01
-1.325362732154614420e+00,-1.327456464474268127e+00,-1.288055295817691626e+00,3.454597241828678555e-01,3.417923183475830573e-01,2.956593896379166031e-01,-8.653511461477082778e-02,-9.133271330914974340e-02,-9.646781083827168923e-02,-7.694758191766427891e-02,-5.884107039541836698e-02,-1.568540416619296912e-02,1.490085226429085086e-01,1.359523215591333378e-01,9.309171498456202121e-02,-2.848748501727013660e-02,1.228009012195904748e-02,4.868473116473871071e-02,9.411744492256152173e-02,5.889092473721600079e-02,3.070390857976041873e-02,-1.690067761987107953e-01,-1.651276636941220177e-01,-1.604077683583614300e-01,1.242520278436618497e-01,1.181423195904599543e-01,1.238223821672799208e-01,5.204529059606085445e-02,3.157056676546115409e-02,-9.804295063603253937e-03,-3.796918604890522908e-02,-1.385897015001000959e-02,2.703796576833780371e-02,-4.551173162735025479e-02,-4.558990896222849670e-02,-5.592761861101443188e-02,-1.522896730917425515e-02,-1.244502662036216581e-02,-3.722475120460216717e-03,-3.129851152328166908e-02,-6.125570901351970465e-02,-8.027036616545434045e-02,2.704301145664778777e-02,6.834095039731315213e-02,9.292752041888414916e-02,2.456361496351590346e-02,9.056186945273559871e-03,-1.486774292051067309e-03,2.399307326901717996e+00,1.082525739456610303e+01,2.415399720192437627e+01
-1.153851898789093333e+00,-1.105905504769268299e+00,-1.039146356817164385e+00,8.010581391962059983e-02,1.740075582389748188e-02,-3.503315783319056048e-02,2.203558930679691899e-02,4.653080018722355327e-02,3.549634342758512667e-02,2.090118040562852914e-02,2.480251167687572839e-02,3.031764201765449127e-02,-5.327419744054104345e-02,-8.861396769266281781e-02,-1.060892673559539756e-01,9.932103024583294193e-02,1.456128486562267288e-01,1.715727145196022929e-01,7.647770909194162581e-02,1.720067380474558233e-02,-3.838209445446603280e-02,-1.947178758746752336e-01,-1.838190009240373290e-01,-1.386153703518293034e-01,1.225434413776465697e-01,1.545321378878876661e-01,1.324640709868732669e-01,-2.109961503108461617e-02,-5.245656533919870745e-02,-4.932705739240954984e-02,-8.076716364137086213e-02,-5.021222857793454508e-02,-4.029342240046362988e-02,1.853886254262915312e-02,3.743232894015618983e-02,7.526636224747865200e-02,4.979099884082131833e-02,2.880247538824354595e-02,-1.356693814299239284e-02,5.365878334764799355e-03,-9.238886159571219059e-03,7.329844860024694979e-04,2.836404664566603492e-02,4.479036407645416856e-02,4.350218348212704644e-02,-1.947874170915142936e-02,-2.663856625933990960e-02,-2.872127353456739238e-02,3.007058431637969598e+00,1.366776205182942761e+01,3.139117989432510214e+01
-1.369275951050669349e+00,-1.400891628206579975e+00,-1.404430377334580315e+00,3.829979826812414667e-01,3.895986419083194430e-01,3.815382797021114603e-01,1.308990339636624187e-02,4.807528532659906262e-02,5.603699805646553123e-02,-2.108916612873195928e-01,-2.017565015630831959e-01,-1.605246885306732263e-01,2.383774022484306254e-01,2.005510645725018803e-01,1.538069488301817000e-01,-4.311388131606322394e-02,-2.626602118911914793e-02,-3.675915616898071947e-02,5.429831740376318133e-02,8.281576887630522077e-02,1.300213241068129411e-01,-2.591875179489098735e-01,-2.812704180501154339e-01,-3.245395945175341690e-01,1.802919200894523288e-01,1.644188374766819005e-01,1.607697787185312088e-01,7.197952614800477711e-02,1.141227255127275492e-01,1.676898033763427609e-01,-7.312981993988687535e-02,-1.058397158682684858e-01,-1.422584374736833857e-01,-1.523690858160685890e-01,-1.774249785359237053e-01,-1.718865823333894927e-01,7.817193057448387772e-02,1.354503562593330490e-01,1.488333200505387033e-01,1.645326478258427594e-01,1.428322842081644617e-01,1.224983337635693753e-01,-1.329686653132211016e-01,-1.535314988234724731e-01,-1.502683563398804212e-01,5.738289486627131536e-02,6.925947667331559809e-02,6.957798284536922950e-02,1.909978923632015935e+00,8.566848221050230805e+00,1.930645371854016190e+01
-1.509385796452849204e+00,-1.536563682773848249e+00,-1.540418580231934342e+00,5.787158544017777517e-01,6.046311318143071656e-01,6.049685765300435447e-01,-1.201684906497437200e-01,-1.073393486155280324e-01,-9.433745305713893414e-02,-1.969014367910198321e-02,-3.225587554707134985e-02,-3.699402455895230146e-02,1.091852331354992850e-01,1.100909148185288261e-01,1.034391467336489012e-01,-1.055117372108340529e-01,-8.687199425074865200e-02,-6.487656650342914222e-02,1.186323394872436376e-01,8.928565230198688696e-02,5.213710541018222455e-02,-1.717279168671681233e-01,-1.654485938754602647e-01,-1.464229635840717247e-01,2.157634625905540948e-01,2.220440913615951140e-01,2.118833530868659276e-01,-5.439418938272953113e-02,-6.125391559800073826e-02,-5.141857946238202748e-02,1.158304310662828726e-02,6.566912294412090463e-03,-1.086538193035990578e-02,-1.654687053700382715e-01,-1.691463109878314497e-01,-1.479068757158724934e-01,-2.101726608566647711e-02,1.510828343991060287e-02,3.362321706235595065e-02,2.600587472550807688e-01,2.342318704916772076e-01,1.918696941813253232e-01,-1.391821907979880479e-01,-1.357140639532757875e-01,-1.166194362105547194e-01,1.279156178900517013e-02,1.278757086786342333e-02,1.205982905616796372e-02,1.958212674889556082e+00,8.782509063884644362e+00,1.966796978941862761e+01
-1.488087048748511387e+00,-1.455812431180708133e+00,-1.375948265601703913e+00,5.739730112678835816e-01,5.297860808796481802e-01,4.327610992932461875e-01,-1.927929700567422300e-01,-1.954883844391659686e-01,-1.804996551655464743e-01,1.070810409252563600e-01,1.221694999258575859e-01,1.144118089479838063e-01,3.098184573187429472e-02,1.830610796316816530e-02,1.259058145848007855e-02,-3.020112140420280755e-02,-4.819606770230352305e-02,-5.862279577342221354e-02,8.371591475988978542e-03,4.751421920582402092e-02,7.370312400664429109e-02,-5.692516919166246137e-02,-4.060301949404061111e-02,-3.503068828480731395e-02,3.987586768815103849e-02,-2.005422338149629585e-02,-2.749975785382023294e-02,1.449143533893438099e-02,7.592748561667067575e-02,8.090777303490208350e-02,-1.879430894973442567e-02,-4.243038139839643008e-02,-2.679212695572422837e-02,-2.269773168870027266e-02,-4.522711759203702775e-02,-7.335679421550879431e-02,2.062642669426792766e-02,5.975090787306058110e-02,7.075647872771771707e-02,3.060526832263604086e-02,-6.019817660075229074e-03,-2.131785446614917895e-02,2.198038074216878551e-03,4.470490724514336253e-03,1.222535950273658314e-02,-1.851367791886702682e-02,-3.923355995277190422e-03,1.857256810910029934e-03,2.534366559048760514e+00,1.139037150145944111e+01,2.566658834789158306e+01
-1.686289243285038264e+00,-1.656119391335937330e+00,-1.556094179291269253e+00,8.018731015715389043e-01,7.761065324860813019e-01,6.330274280499718076e-01,-6.271375935566204929e-02,-9.534523225282891257e-02,-7.357751167381371138e-02,-1.724369238408618166e-01,-1.625823146618408932e-01,-1.301144757220150938e-01,2.238470569702311341e-01,2.641207696163300200e-01,2.245624108986098988e-01,-1.121634118412144915e-01,-1.306624506313180112e-01,-6.556484906587553563e-02,2.014987450906249172e-02,2.392811996357482960e-03,-5.478479153846031735e-02,-1.906956661434824896e-01,-1.251771348194834765e-01,-6.129871513178238029e-02,2.508684921045248872e-01,1.665415881547363808e-01,8.912353352427609954e-02,6.906421563387273033e-02,7.165272624874324814e-02,7.996434467281941794e-02,-2.319564131325758671e-01,-1.605901972340272599e-01,-1.048488997158482511e-01,2.190761641735002041e-02,-3.595903901802159630e-02,-8.314362660340711420e-02,3.379690411108751940e-03,-1.143961833005391338e-02,1.149348129918241826e-02,1.616083355920228115e-01,2.380919182302393411e-01,2.277354909269446726e-01,-6.313951736486433930e-02,-1.323986249039628138e-01,-1.310270040998700036e-01,-3.317815290151117369e-02,-8.518761559170803105e-03,-5.360230725504531134e-03,2.456933854696257136e+00,1.092241052404083668e+01,2.568345518505417147e+01
-1.629657475870772032e+00,-1.636659024755853897e+00,-1.588781962568132755e+00,6.174795949358389269e-01,6.397179290836237930e-01,5.719881852021881929e-01,3.712372586593362667e-02,2.262191910155684701e-02,5.510842713063390103e-02,4.867045265933196696e-02,2.068757211241093949e-02,-3.350126319915928269e-02,-8.481752228721409215e-02,-4.297614896405169138e-02,2.447953129319802718e-02,-3.493671437798019641e-02,-6.892792704362689371e-02,-1.074894866670512428e-01,3.279375041593818318e-02,7.710290675885847489e-02,9.956164221613546250e-02,-8.530217782484084132e-02,-1.482006987183702718e-01,-1.726756006291284562e-01,1.712161263074865603e-01,2.300343754981590272e-01,2.311604203305921978e-01,-5.797763709970847612e-02,-9.547580966022121973e-02,-8.146201239666303606e-02,-3.628700265813219333e-02,-1.715380951564348180e-02,-1.324275291322599829e-02,-4.950151734540464421e-02,-3.233371603663520721e-02,-1.540906228588724385e-02,5.042634044418396744e-02,2.150082809115940255e-02,-8.771428468857540850e-03,9.608084524214821620e-02,1.128042430194201862e-01,1.205511220183125426e-01,-1.135724961137268424e-01,-1.413993141129768760e-01,-1.495791490806421820e-01,3.856969838024965763e-02,5.892434450711673405e-02,6.825390629055946845e-02,2.020511917446420558e+00,8.957966807651601471e+00,2.097225913637505812e+01
-1.444064026725565997e+00,-1.468670014296556747e+00,-1.455156932309973561e+00,3.754295774834268684e-01,4.055901874972870358e-01,4.094366509795075992e-01,1.188136233157535415e-01,1.296083312734846726e-01,1.250472168651116378e-01,-1.885090716544681466e-01,-1.944213166137374604e-01,-1.906228368962654407e-01,1.662722381645218017e-01,1.544942265222239430e-01,1.388960668765837070e-01,-2.524185506603827261e-02,-2.656135765201044982e-02,-3.680317916199195294e-02,6.859880867359822998e-02,4.383568478591180761e-02,1.381943363209499689e-02,-1.661950221298741925e-01,-1.412648537062605736e-01,-1.022295829838145154e-01,8.200621071753824709e-02,1.165797925368591281e-01,1.395392740040641288e-01,-2.344263948568694675e-02,-4.738191054388106449e-02,-5.736146204635200058e-02,-3.668251822461086886e-02,-2.922177027821234313e-02,-1.467770657048178898e-02,1.668078758219909002e-02,3.120249843914404790e-03,-2.465806454745071014e-02,9.222318323346874458e-02,3.673751646376503810e-02,7.577822496453145637e-03,4.050357690329101784e-02,1.027475173901123279e-01,9.886782030250908238e-02,-9.628112457256771117e-02,-9.589074576284126183e-02,-3.977440617292470754e-02,2.008570605295325814e-02,1.085008333755894602e-02,-1.178785844341288455e-02,1.523079450948143787e+00,7.245872661368604639e+00,1.733983520483295848e+01
-1.169923594532411792e+00,-1.128126033569334163e+00,-1.065877043703675753e+00,1.432013340776845112e-01,8.593457519954468549e-02,3.053636881405534867e-02,5.746129196196936989e-02,6.123439585614253583e-02,4.804065905154623201e-02,-1.187288088321663687e-01,-1.024660061700057578e-01,-8.986260839041576576e-02,1.170740714429065049e-01,1.145197979093467711e-01,1.084814606856706887e-01,-1.508351076411184981e-02,-3.509786661084714904e-02,-5.810916147833029149e-02,5.852141594212994374e-02,6.756057235807014227e-02,5.910684693290502167e-02,-1.854574078268129700e-01,-1.974653079967140512e-01,-1.667011880512043187e-01,1.352947147366517500e-01,1.411688045621631304e-01,1.330482009571267721e-01,3.080953009785831337e-02,3.845061626696404111e-02,2.740366497151358605e-02,-6.353207608272623541e-02,-6.826652357945066363e-02,-5.602281981629209096e-02,-3.866122809753701900e-02,-7.456121131985540135e-03,1.540267373022859848e-02,-1.927321942873869848e-02,-3.902251733174037784e-02,-4.674004942297587534e-02,1.416884827557992887e-01,1.321131375763581473e-01,1.111300692728794948e-01,-5.003908835367079644e-02,-3.287278917927561467e-02,-1.697639567918263204e-02,-2.327318419678450767e-02,-3.013900350505734765e-02,-3.279830744258963732e-02,2.666488948898202427e+00,1.218196699214067635e+01,2.788688975997644448e+01
-1.196777478361730429e+00,-1.161840503098284794e+00,-1.114740165476929112e+00,1.772599635997400280e-01,1.367767635096739098e-01,9.952119576265976153e-02,6.151524717812012488e-02,5.064861158724622003e-02,2.337092899822725348e-02,-7.931147121284096158e-02,-4.787007472323021040e-02,-2.047199200951215284e-02,6.597117107168068428e-02,3.812500488009657601e-02,2.022139327567760991e-02,-4.329588800140303506e-03,-3.232902020516322753e-03,-9.834408926308100748e-03,-1.914430759475951871e-02,2.220919308548997134e-03,2.400710359439434810e-02,-8.956424083574976436e-02,-7.936006068539383507e-02,-7.093036937178343049e-02,6.526805519785038034e-02,3.818655725993082284e-02,1.846386461660128042e-02,1.132039996088223394e-01,1.028323625520570078e-01,8.316661427848252852e-02,-6.270088528311375253e-02,-4.478464071094769711e-02,-2.855897110211075632e-02,-5.526240997600155580e-02,-5.948245909990836078e-02,-5.709263686014000999e-02,3.430037747185413731e-03,1.428658198186167662e-02,2.427483164511513164e-02,4.561430527180488498e-02,2.075243396699611928e-02,1.966532376858486260e-03,2.673675649894797363e-02,3.814262028451889663e-02,4.046366527847401057e-02,-5.183207640346267769e-02,-4.533766019883789938e-02,-3.377453698400192245e-02,3.189554561217289752e+00,1.475056757448568590e+01,3.452954288854736831e+01
-1.548553616940200328e+00,-1.538519495524653724e+00,-1.500303024804752416e+00,5.316907749059225363e-01,5.271432507947158008e-01,4.908252937873820998e-01,1.524813481700407480e-01,1.531791852521963704e-01,1.468891376386326220e-01,-1.857876733584556406e-01,-2.349416385142987229e-01,-2.730745065581647868e-01,-1.122860488028017550e-01,-6.961848174145553181e-02,-9.411405240984079337e-03,4.597023871806604073e-02,5.277145034115382494e-02,3.908780683671134182e-02,2.064757400316192815e-01,2.062162205786421953e-01,1.883376538622950624e-01,-1.781834559648179384e-01,-1.953375953405335208e-01,-1.840270387339526525e-01,1.790446956308319737e-01,1.656909805408330327e-01,1.375080232245590728e-01,-8.301973250877719979e-02,-4.829087264493537451e-02,-8.228775830186167012e-03,4.218605724214861963e-02,1.042226574123140612e-02,-2.539865880078108137e-02,-4.086335507529896549e-02,-4.595865883930298941e-03,3.567696388713961081e-02,-8.117343204717678007e-02,-8.444419227803875994e-02,-7.303017075125947666e-02,1.058721236346650690e-01,5.875029300358058926e-02,4.757000168176929791e-04,-5.655531944505065578e-02,-6.743343645745716181e-03,4.305748658462156542e-02,2.294693003468878043e-02,8.532500992454870176e-03,-8.211288356911049940e-03,2.139643252080843272e+00,9.668945762802799493e+00,2.200976143530861862e+01
-1.073798605088675862e+00,-1.061870568761689837e+00,-1.067758736502528283e+00,-9.704659925414570176e-02,-1.098015612013228393e-01,-5.824013139839469971e-02,1.937104471954562840e-02,-3.922574175554330994e-02,-1.281936814626604693e-01,-1.092816556463253042e-01,-3.203598287615710971e-02,8.830978599464718581e-02,3.988580121144465473e-01,4.360295903145934293e-01,3.604692818023203515e-01,-1.002105026511699165e-01,-1.404102415693750938e-01,-1.434964818751384152e-01,-3.688349051023904340e-02,-6.608563047500827514e-02,-9.018712308334755900e-02,9.242871073409018173e-03,1.409148494709941933e-02,-1.256174628174646290e-03,-6.379526482860495284e-02,-8.709334376325592042e-02,-2.568655166249984856e-02,-1.149317578403592360e-01,-1.095437706721827248e-01,-1.163124767105924717e-01,1.920104820986900107e-01,2.014861474539055286e-01,1.571559219934818008e-01,-6.580877668240164846e-02,3.812099391210625743e-03,7.304379782718184444e-02,4.598760055084286091e-02,9.526375438267281962e-03,-4.562485063132231539e-02,9.983878176478984401e-02,5.846618042415861055e-02,3.807890947735081966e-02,-1.008306416278451217e-01,-7.885455495480818422e-02,-3.025438714173052032e-02,-2.316190681753165295e-03,1.823163998232938841e-03,-9.818413697125487338e-03,2.711453897358480525e+00,1.288434134960307809e+01,3.113931086403135140e+01
-1.632174147899614125e+00,-1.604542718426834158e+00,-1.560654988235518958e+00,7.034873031755973782e-01,6.687036119818440261e-01,6.185223189446236169e-01,-1.373047629702613404e-01,-1.547204188072301145e-01,-1.768599907045275144e-01,7.890833060207793487e-03,3.387179703233839795e-02,6.947949542104750464e-02,7.311444290228741316e-02,7.310465525981395263e-02,5.858264366457504452e-02,1.085882216174011670e-03,1.916360021088339347e-02,5.238012674959775794e-02,2.130907506522787542e-02,-2.315804532004228991e-02,-8.111738284741271121e-02,-7.081680563007171358e-02,-4.047120065968081576e-02,2.209546021626804246e-03,8.921867084412428428e-02,9.380144736341912426e-02,8.719465160977021845e-02,-1.286370356864313946e-01,-1.753392558001969359e-01,-2.059609973822187634e-01,-1.725848397828094044e-02,5.196854031000695123e-02,1.146639852782110058e-01,2.902164243425554846e-02,-8.307646341400949305e-03,-5.398902091121063340e-02,1.638278614007860068e-01,1.622042945043969397e-01,1.626415906890715246e-01,-2.483877051228036009e-02,-3.769861193089611706e-02,-5.674964763320428790e-02,-1.019040116981446281e-01,-5.991063901820241344e-02,-2.976648824029724805e-03,2.432533719860383373e-02,1.639579619959007474e-03,-2.711707281805896333e-02,3.143716676380861497e+00,1.363174932342404233e+01,3.020892417048450795e+01
-1.600140692574410828e+00,-1.591619044854845733e+00,-1.526999114967837468e+00,7.037336582055384593e-01,6.592679224451835074e-01,5.261667947864387962e-01,-8.274124673489294257e-02,-3.114247545371211928e-02,5.010703299100109642e-02,-1.107009094860232912e-01,-1.381498690262965290e-01,-1.533321240365230487e-01,8.653128763562739634e-02,1.262747014568841863e-01,1.439254954486358096e-01,-4.751643831258173245e-03,-4.115548588752648840e-02,-5.326813995361130011e-02,9.388576372311198404e-02,6.718559222089187655e-02,2.974044036915229547e-02,-1.563911167310725325e-01,-8.832108191072979286e-02,-2.790952051345440416e-02,1.055334863408972090e-01,3.672949097502131721e-02,-2.588467491466705378e-02,-9.437430252358296190e-02,-4.564071994287292183e-02,1.335322048226646012e-02,8.097859838083519557e-02,6.774994899054331832e-02,3.840108806053153107e-02,-1.176556399182131091e-01,-9.991037346907417904e-02,-7.837349463949316863e-02,4.239668307961027421e-02,4.029404872017935610e-03,-1.885480650902471994e-02,8.032838264946753903e-02,1.187904175081075375e-01,1.260482383968642428e-01,-5.798866864814380961e-02,-9.817065244725810269e-02,-1.086003493811330822e-01,3.168491437820653706e-02,5.438075388702123814e-02,6.573497801978281374e-02,2.078591047542272197e+00,9.146140155681745654e+00,2.006346345058391023e+01
-1.193042628584029652e+00,-1.194082190878878125e+00,-1.181082560515127833e+00,1.380857312361248312e-01,1.553430227801964880e-01,1.646552668254496199e-01,3.047670894777761846e-02,4.661601698539689226e-03,-1.312301720280667841e-02,-2.360915395203083689e-03,-1.617844425552621493e-02,-2.995602320393530096e-02,2.449676788321957649e-04,1.837526340039522671e-02,3.129073937213825568e-02,4.027940199143281025e-02,5.021774826035396017e-02,4.399982492806969736e-02,1.865591716012551804e-02,6.753953464280532462e-03,1.099549144489360766e-02,-1.214771875523864009e-01,-1.087818241254967233e-01,-1.057774709998393625e-01,9.288534708023228614e-02,8.754130574920271357e-02,6.820428089160332497e-02,4.930085508703291319e-02,1.222588198039535438e-02,-1.164788996822172309e-02,-2.254078697296649225e-02,1.280469585778179313e-02,4.644765732050912255e-02,-4.797162585725005951e-02,-7.146367677148358910e-02,-8.906804634985153457e-02,3.362968540679098228e-02,2.461529705874317478e-02,1.853473073774957597e-02,4.937670016979837581e-03,2.456963403406205518e-02,5.493671891151404030e-02,-1.177097478038448275e-01,-9.720076822105309933e-02,-7.312116258063390550e-02,9.670442924566331755e-02,9.068951207539999171e-02,6.478862324790300720e-02,1.971852336183602450e+00,9.243961926327756373e+00,2.209871717717867057e+01
-1.560834242291899043e+00,-1.588784702425402706e+00,-1.580565988493505714e+00,6.045458962570813277e-01,6.392453034111436061e-01,6.205795252893160363e-01,8.200128462334584784e-03,-1.122918929560268002e-02,-1.582161921043799893e-02,-2.670078690519956388e-01,-2.615104587828542826e-01,-2.354516775007123586e-01,2.446978992562666433e-01,2.684958461440382638e-01,2.650680540854407630e-01,2.517433508791458094e-02,2.040475418017831388e-02,1.541791307691576032e-02,-2.482291851019396978e-02,-3.740657076787657492e-02,-4.019152520532371514e-02,-2.450156880903276435e-01,-2.360213739922293885e-01,-2.239972843668488478e-01,1.529464156815102116e-01,1.541349799897639705e-01,1.438476178685550999e-01,3.213366731400624926e-02,4.191032648435495320e-03,-4.286317299247933282e-03,2.874774380823646308e-02,5.556664957101867947e-02,5.889673107604889712e-02,-4.166875501288320321e-02,-3.431263223206891533e-02,-1.451731891481764306e-02,1.555977117299607027e-01,1.219244145256662554e-01,7.908251063546931081e-02,-5.896805818522587311e-02,-4.651021262960094993e-02,-2.338815624375617172e-02,-9.536076530438769572e-02,-8.177822234122170131e-02,-6.359384080159005692e-02,4.194791329681155090e-02,3.383029897822020099e-02,1.909122570710565167e-02,1.764005074709814158e+00,7.891831729486646019e+00,1.801135928943459419e+01
-1.029092558846882222e+00,-1.023938603377127610e+00,-9.792739245465821307e-01,1.261139859891138859e-02,3.502089560814801439e-02,5.896409644870167274e-04,8.506493810104528985e-03,-2.644829262803066044e-02,-2.306364825144004149e-02,4.551634418809883537e-02,4.326375346828995744e-02,1.770904303266300495e-02,-9.439895418352408502e-03,4.641108855858344824e-04,2.713744168156862271e-02,5.655989788110735855e-02,3.823433810448008396e-02,1.156883189972874497e-03,-7.838597444227224376e-02,-7.215102837013574744e-02,-5.568558355095623580e-02,-6.799714666114721473e-02,-5.640150248029327656e-02,-5.911365028762389368e-02,5.030346272139399333e-02,2.899980555810011476e-02,4.683555194031206736e-02,-4.422822726324850129e-02,-2.254900421439173797e-02,-3.222872037367293524e-02,5.094954302057475709e-02,6.161237323223909407e-02,5.885988376583638215e-02,2.513152747018453786e-02,-1.526534887853911102e-02,-2.517160097158740312e-02,1.121767314485959052e-02,2.462699259079476760e-02,2.809257936024276564e-02,-2.428697688532736876e-02,-4.923892329079318508e-04,4.392009875874422140e-03,-3.212711253925516069e-02,-6.305863427182542558e-02,-6.328647390756092506e-02,2.490501991395232401e-02,4.821978465087721488e-02,5.317754366718474568e-02,2.775838419210368890e+00,1.301377525785244416e+01,3.106108064138920710e+01
-1.255035108487150275e+00,-1.227397962360777806e+00,-1.185827909210117381e+00,2.192626421847864437e-01,1.835314819522429475e-01,1.467173968640331783e-01,1.701571210865505251e-02,6.476952711326111611e-02,1.147587893019696714e-01,-9.696031381969993923e-02,-1.831394791697744384e-01,-2.785261638648203197e-01,1.229988322482465368e-01,1.212975970603021730e-01,1.313035191961068604e-01,-5.936216561618325172e-02,-1.077771826680409134e-02,5.486098822738001701e-02,9.391109568448974265e-02,7.121403202913645369e-02,-4.274995908280589813e-02,-1.789701543766446801e-01,-1.454266933170969833e-01,-4.219910770183540882e-02,1.738730735474462163e-01,1.233293867859429904e-01,3.895769947426448027e-02,2.667413073406260660e-04,4.593350633815550949e-02,1.040139782039445071e-01,1.629005677932367918e-02,-1.333364061418888628e-02,-4.263994104624629911e-02,-1.191528458822287834e-01,-8.176305670972994211e-02,-5.535417363316574683e-03,1.476775815098713140e-02,1.294773891543661397e-02,-1.323183199913710931e-02,1.582782003935273574e-01,1.439393059504714134e-01,8.781075938297633332e-02,-2.124828349871420441e-01,-1.885399041020467958e-01,-9.928429226780202677e-02,1.054333329691026777e-01,8.353040924665450229e-02,3.166989162701646515e-02,1.588736444944404802e+00,7.515097128757193268e+00,1.783911776259943593e+01
-1.485113189995388661e+00,-1.488720297799397629e+00,-1.476334554017627809e+00,6.080936234826855857e-01,6.040967507493538724e-01,5.742462913059751539e-01,-2.342752567194968660e-01,-2.284458490772001138e-01,-2.075422088299083700e-01,5.408003480985101342e-03,-3.094632473057203070e-02,-5.874105878924459206e-02,5.041670067139213812e-02,9.494810798008689046e-02,1.294316775735882552e-01,7.591517595471827806e-02,8.428379294468223148e-02,8.111022819110552673e-02,-5.502116954121580306e-02,-6.816579030725318511e-02,-6.867128887910364798e-02,3.700780172713628857e-02,2.840010738641438048e-02,1.710770663702444044e-02,2.434355033045937367e-02,5.734226134202298486e-02,7.336063819563855282e-02,-4.983194282363021671e-02,-9.705485626389506737e-02,-1.194994555961993304e-01,-4.472679237268761820e-02,-3.790090443642786869e-03,2.505199047729380485e-02,1.090141564829206072e-01,6.077846452854347020e-02,1.161947835460984922e-02,-1.854161899408742625e-02,2.460867201233893006e-02,6.924611155425924869e-02,-1.943328534541997193e-02,-4.773468943540196824e-02,-6.655127062911096736e-02,2.245490594890561104e-02,3.991190595163306154e-02,3.848363180292760366e-02,-2.549595591825038962e-02,-2.933631240578233462e-02,-2.218555615467379324e-02,1.895723358467401587e+00,8.471074315014137213e+00,1.944352749867515229e+01
-1.219682607220741177e+00,-1.199489086583176212e+00,-1.145714029842948900e+00,1.480281475605076946e-01,1.054533426852439920e-01,8.243328749574858894e-02,4.925738177099422271e-02,1.296879605281285042e-01,1.122650517787238400e-01,-4.501603678190381486e-02,-9.260359279569203850e-02,-9.093740799251315288e-02,6.582436096526121660e-02,4.060037442080673131e-02,4.625553075550879051e-02,1.950667471518870502e-02,1.831471948690220966e-02,-2.238486968690357390e-02,-2.848082156965045866e-02,4.913126105954189471e-02,7.801396299356722075e-02,-1.459072701309253595e-01,-2.157633643449128336e-01,-2.088291140795151268e-01,8.548299683246178560e-02,2.490905200746617101e-02,-1.981119294138652953e-02,1.080388919352900240e-01,1.827892404943254612e-01,1.778665984072630990e-01,5.497138266996914532e-03,-5.697290113802536138e-02,-6.049503654520921314e-02,-9.747056102783098475e-02,-5.992992084503808402e-03,5.457160917471586686e-02,6.360164365842152327e-03,4.291603352752985934e-02,5.801201904304841006e-02,1.311017074002903682e-01,5.929184692751998664e-02,5.292170295558576432e-03,-4.156122619285608499e-02,-1.346775781444514708e-01,-1.701937286347696976e-01,-4.087267926317316585e-02,5.249321908193054637e-02,1.037287181698299671e-01,2.227629152850990835e+00,1.048866633400084147e+01,2.481549245628805878e+01
-1.274230673707189343e+00,-1.242454724783512932e+00,-1.195279660595233828e+00,3.177174485360510503e-01,2.521355081861110792e-01,1.715472285942753194e-01,-4.314501019502902518e-02,-7.767998937702496297e-03,2.711518467972801050e-02,-1.597634181787826319e-02,-2.081534111468908918e-02,-2.003724463337166334e-02,5.786050448887107567e-02,5.035378851736169864e-02,3.479792900682301265e-02,-1.380139725197352674e-01,-1.346730122594560486e-01,-1.231071397253711286e-01,9.885348728188007861e-02,8.508361650097136242e-02,6.879015749915380618e-02,-9.995260468032569900e-02,-6.734452434369496421e-02,-4.214652385421169961e-02,1.242615420388117620e-01,1.045420114770101022e-01,9.375143860911133720e-02,-1.492243988462390106e-02,-2.032159993415359397e-02,-2.958306353517528228e-02,7.397278998358507163e-03,2.570298901479231915e-02,3.800569777948576561e-02,-3.404399131144640600e-02,-3.112876694093868676e-02,-2.287953117254017468e-02,-2.821725363181407879e-03,4.862268405287173065e-03,1.381626650373250775e-02,-2.486546021222070524e-02,-4.462379309690805984e-02,-6.059677839504413327e-02,-1.323444882782482540e-02,-5.186163412169264575e-03,-5.029524373243124402e-03,5.525766262182178062e-02,5.175616449464557484e-02,5.092726877798685325e-02,2.853464336349027963e+00,1.272664328828740032e+01,2.954109625921272198e+01
-1.266632582858855605e+00,-1.257595301398775067e+00,-1.242630417698067147e+00,2.222056994495607007e-01,1.911929420371334398e-01,1.763254028530098494e-01,7.107992461800760609e-02,1.518496152546927325e-01,2.035218819277186952e-01,-7.230134591763731633e-02,-1.453766697514804751e-01,-2.161974078373614383e-01,9.363753022018952987e-02,7.989134450218408900e-02,7.476698921124896868e-02,-2.357863495233986084e-02,-3.599571941647287682e-03,1.930246255378417070e-02,1.722406385981131716e-02,3.450858786697996901e-03,-1.058329403969344128e-02,-2.417719451850824930e-01,-2.035205973945491131e-01,-1.742766831280584405e-01,1.573766422428838352e-01,1.504140916063856914e-01,1.392159154893323758e-01,4.029021082054273784e-03,-1.930793552678967268e-02,-3.469456785745855115e-02,4.883351032257862712e-02,4.834405375811310496e-02,6.127632076992135801e-02,-7.724358448315750414e-02,-7.793967144436073080e-02,-8.699543741483133086e-02,3.429582539119248319e-02,2.492512109126644032e-02,1.433258105600015639e-02,4.091688459650422854e-02,7.623787761048879397e-02,9.915996226145600001e-02,3.995950889020549734e-03,1.233432124664387425e-02,2.035482365996831716e-02,-1.191502992414671114e-02,-3.118464324897201115e-02,-4.279636653391208356e-02,1.957311460719549645e+00,9.033887619829945592e+00,2.116747771905533426e+01
-1.160252094413639634e+00,-1.125971878345409793e+00,-1.073169907415241431e+00,1.326061281632340827e-01,1.028735703632629311e-01,6.809885127595402543e-02,7.115855053425006183e-02,5.323747695322715578e-02,2.337782431137715167e-02,-7.379722731927403079e-02,-6.407410801251121890e-02,-4.850746997861138388e-02,-2.456420092607765338e-02,6.025736481975564780e-03,2.628036829302019331e-02,5.880181302624241935e-02,4.041960111743098105e-02,3.362099203698046268e-02,4.941697155984941213e-03,-1.776187203457160746e-02,-4.403177715797643860e-02,-2.244106774799873444e-02,-1.508978493134777816e-03,5.018289356777499467e-03,-2.510811662177368786e-02,-3.845968891517538568e-02,-3.908167443050879902e-02,3.542331975136413236e-02,3.085297270545221335e-02,2.956144487959838987e-02,-9.662185595886628453e-03,-1.222921843724311848e-02,-1.231999732873769945e-02,-8.340806891672997159e-02,-5.497575155376811101e-02,-3.798762645591999276e-02,1.502672175873541460e-01,1.292216443216168964e-01,1.063582665759538887e-01,-1.206444376908852867e-01,-1.370451812033366967e-01,-1.322788755292975127e-01,6.335047294855906952e-02,9.278188663865270802e-02,1.056803435842285366e-01,3.516206509587034047e-03,-3.222307489542118424e-03,-1.049180312765083355e-02,2.453608224978753860e+00,1.142062259549586400e+01,2.739319226878055957e+01
-1.101959106660210574e+00,-1.072156348674411230e+00,-1.043062155255160661e+00,-9.870680492133954154e-02,-1.355102541086117829e-01,-1.575986211799752235e-01,3.107551167119418367e-01,3.256854224878883985e-01,3.335439919868113945e-01,-1.273529763678750704e-01,-1.255532728554545618e-01,-1.358242608241991833e-01,4.730708763271523204e-02,4.770646978495846763e-02,4.230923312036088957e-02,-3.101164015622508152e-02,-3.592908382943327955e-02,-8.261443214209875791e-03,3.120587333591791704e-02,3.698675091685443839e-02,1.526569569401888850e-02,-1.416881624463348643e-01,-1.669431135982661074e-01,-1.861700834433720753e-01,4.749337947821513639e-02,5.699380827469775063e-02,7.410891696916709070e-02,2.018116442702348190e-01,2.008550645549672109e-01,1.823509204991993482e-01,-2.377918458609977193e-01,-2.183472064469698659e-01,-1.791125475610854945e-01,2.314604701828480021e-02,1.083797831329885372e-02,-5.641372826832141349e-03,4.058487253888757446e-02,4.085457409439620380e-02,2.355374741073335693e-02,-2.598036345947362952e-03,-1.430150509833015213e-02,-1.992561655831804127e-02,4.367354610818103416e-02,4.124503507222603005e-02,5.173751634881797873e-02,-4.688939998437606504e-03,7.732565919197732958e-03,1.285494291729521836e-02,2.857169419964328494e+00,1.284133238393456011e+01,2.967165689978476095e+01
-1.151910775535069265e+00,-1.097739436356601317e+00,-1.029801504906541210e+00,1.123383827996467799e-01,7.957715900599186820e-02,4.632775749215174710e-02,9.883512172454503308e-02,5.579200613533655956e-02,6.567288192157777656e-03,-6.567011865928039371e-02,-4.443708373955315705e-02,-2.895397839875340010e-02,-2.180526805777003099e-02,-1.324054371194488718e-02,-5.621987023722286453e-03,2.865213808453716954e-02,1.919121285007631406e-02,4.989345165765095291e-03,-5.019080489936272177e-02,-6.460776590810249354e-02,-6.080306664877568879e-02,-6.095555444716889426e-02,-5.291944409938462851e-02,-5.800723869188231102e-02,4.173995734506955740e-02,3.186750181105549307e-02,2.610062927401590391e-02,6.925879985713338793e-02,6.311149608244427667e-02,4.771634415776071503e-02,-2.629795978663903785e-02,-2.707743790733916842e-02,-1.423253816536638496e-02,-1.830580196075944424e-02,2.988278214771485780e-02,6.236301091758724574e-02,-2.518712486499661944e-03,-1.828580146453752039e-02,-2.036127601805112416e-02,1.035599539110115264e-01,6.295156000273841035e-02,1.880861078781158671e-02,-3.668017373626146493e-02,1.257381417815423008e-02,4.653845654873120519e-02,-1.991880886982120430e-02,-3.652510721744466754e-02,-4.153279863287697576e-02,2.792393512137799849e+00,1.255884571987703069e+01,2.827939840199008614e+01
-1.169923594532411792e+00,-1.128126033569334163e+00,-1.065877043703675753e+00,1.432013340776845112e-01,8.593457519954468549e-02,3.053636881405534867e-02,5.746129196196936989e-02,6.123439585614253583e-02,4.804065905154623201e-02,-1.187288088321663687e-01,-1.024660061700057578e-01,-8.986260839041576576e-02,1.170740714429065049e-01,1.145197979093467711e-01,1.084814606856706887e-01,-1.508351076411184981e-02,-3.509786661084714904e-02,-5.810916147833029149e-02,5.852141594212994374e-02,6.756057235807014227e-02,5.910684693290502167e-02,-1.854574078268129700e-01,-1.974653079967140512e-01,-1.667011880512043187e-01,1.352947147366517500e-01,1.411688045621631304e-01,1.330482009571267721e-01,3.080953009785831337e-02,3.845061626696404111e-02,2.740366497151358605e-02,-6.353207608272623541e-02,-6.826652357945066363e-02,-5.602281981629209096e-02,-3.866122809753701900e-02,-7.456121131985540135e-03,1.540267373022859848e-02,-1.927321942873869848e-02,-3.902251733174037784e-02,-4.674004942297587534e-02,1.416884827557992887e-01,1.321131375763581473e-01,1.111300692728794948e-01,-5.003908835367079644e-02,-3.287278917927561467e-02,-1.697639567918263204e-02,-2.327318419678450767e-02,-3.013900350505734765e-02,-3.279830744258963732e-02,2.666488948898202427e+00,1.218196699214067635e+01,2.788688975997644448e+01
-1.412030936632684641e+00,-1.358142313478792440e+00,-1.250034648073158339e+00,2.182651411268255182e-01,1.617445015426265675e-01,5.414460497843440190e-02,1.018615199498839052e-01,1.042840941606524990e-01,1.192006436597889407e-01,1.941108864181705917e-01,1.606763325135109610e-01,8.102663302795240496e-02,-1.431598495022408934e-01,-1.245006785862895760e-01,-8.138576276436493284e-02,-9.217247347550389103e-02,-1.345730022759236422e-01,-1.164784051017239142e-01,1.745160397223713689e-01,3.084981008185784246e-01,3.090104676260541638e-01,-4.307892039978298301e-05,-9.192421933179267812e-02,-9.407178411410617447e-02,-1.102100951405232954e-01,-4.219203454615915588e-02,3.397407221556428443e-03,1.469601589504305750e-01,9.110979609421077791e-03,-6.473937118060989204e-02,-4.192885757518917400e-02,1.242457391363573499e-01,1.860739712548372116e-01,2.394625705817767652e-02,-1.134785704324255545e-01,-1.649971467800099567e-01,-1.361393224655189083e-01,-6.155759114218518208e-02,-2.419915190876471833e-02,4.725698588231997538e-02,2.074636167220213212e-02,1.493212694673473444e-02,2.055440992146050777e-02,4.130385114152629322e-02,2.562065403035272346e-02,8.649936773199225562e-03,-3.886564799157483149e-03,2.782508964158275297e-03,2.679673307008672012e+00,1.252981667835042678e+01,2.947529590950668066e+01
-1.376369786134091999e+00,-1.375555573955461242e+00,-1.336007642274884999e+00,3.639996627343433655e-01,3.310521888553611958e-01,2.370385301147850676e-01,-4.759502687873144733e-02,2.066091908643559114e-02,1.333012834615385500e-01,5.367938049877207796e-02,4.022257113240116505e-03,-8.379865554486555512e-02,3.513377805905340545e-02,5.287704630935323447e-02,7.135215204537290190e-02,-7.311997854615900905e-02,-8.941210575769020785e-02,-7.535788925231202973e-02,2.412101173575089460e-03,1.257055773694828668e-02,1.464403771417273868e-02,4.881572943286714011e-02,7.032738906896048026e-02,6.369671550155102391e-02,-1.743879267792769125e-02,-5.564873230265560133e-02,-6.460353734421071803e-02,4.964580948824071083e-02,4.607065120302213795e-02,3.296715963326496412e-02,-1.112138697015834093e-01,-7.407902954579058397e-02,-3.101423826262861630e-02,2.673434351447350615e-02,-3.539629603817464644e-03,-3.185366947666126020e-02,4.526525437218859721e-02,6.227826882437118017e-02,6.609553369714275817e-02,1.212577572078526317e-03,-7.888879923011363204e-03,-2.808536633777452760e-03,2.191424618376696179e-02,4.500533829982065331e-02,4.367007224643783270e-02,-2.288437920026563724e-02,-3.858797088774898465e-02,-3.720809974245842255e-02,1.832366469782558571e+00,8.250757092081476785e+00,1.959903805646805353e+01
-1.320084036399375549e+00,-1.264074618286468610e+00,-1.143664023877646985e+00,3.173964255858524042e-01,2.130380866673504126e-01,6.491883724105976250e-02,3.168408392947910483e-03,6.229604266038431953e-02,7.861987214036023075e-02,-1.209743689401001909e-01,-1.425574566837208845e-01,-1.273763173820544048e-01,1.343089956052283818e-01,1.508448723616198639e-01,1.583519025296189209e-01,-1.306409727153260737e-02,1.274076128648048839e-02,1.915200987060869386e-03,3.793394695386438642e-02,-1.639032227656166824e-02,-2.528660782583003544e-02,-4.197097024067109050e-02,-5.091142394005432337e-02,-5.726468893637255697e-02,-7.671229180801679946e-03,1.638141245015613603e-02,1.126963860398376253e-02,5.652529934352597263e-02,7.476050316371284088e-02,1.056487169882074917e-01,-4.902417932596676853e-02,-9.591230132124048402e-02,-1.287944101850993228e-01,-9.910777362085014530e-02,-2.118736550046193892e-02,4.599029706476099461e-02,7.536371353948050078e-02,4.587323297407553541e-02,7.657454156733839619e-03,8.155448959817782062e-02,6.226238496673180273e-02,3.177883996162143843e-02,-4.430985381469282336e-02,-4.689224103825331141e-02,-1.017640839581976722e-02,-9.953620077032366426e-03,-1.868706778931112516e-04,-1.350968357287147224e-02,1.508530119797574454e+00,6.982566096133675515e+00,1.619127236001397208e+01
-1.219793338441069963e+00,-1.186954821359566425e+00,-1.126362174889293799e+00,1.575193457907946293e-01,1.126834184998671134e-01,4.632108058054219130e-02,1.022906931489986765e-01,7.849921763939372854e-02,4.750718366709618529e-02,-1.035509227511076380e-01,-6.908932221141619867e-02,-9.503795539789120297e-03,8.140298376689718285e-02,1.004769513583738116e-01,6.305133763321871254e-02,-1.153857308066049830e-01,-1.285066627059634758e-01,-7.406179583184691051e-02,9.198350424243842416e-02,6.309864402726350630e-02,-6.695216217083813526e-04,-1.218713642307771572e-01,-6.596779810368030850e-02,-1.551245279360303174e-02,8.233459398777286109e-02,4.741421946992330216e-02,1.667639144058815151e-02,1.741581965257170683e-01,1.884135015572996619e-01,1.834116342212428752e-01,-1.293451793862930577e-01,-1.353499322693412776e-01,-1.101109218276198481e-01,-4.536057587323522738e-02,-5.210519659314669788e-02,-7.482390658982161769e-02,-9.410838577820827833e-02,-1.040411544777660180e-01,-1.021536420310779486e-01,1.579515664442219802e-01,1.413296604676020918e-01,1.252246176417671497e-01,-9.556407321297039070e-02,-7.361818573753498018e-02,-6.081814288643570127e-02,7.754106868577807787e-02,8.389033689508577918e-02,9.195505050615511433e-02,1.957402370315950657e+00,8.906975161854060019e+00,2.098862467964334044e+01
-1.462792295765969586e+00,-1.471073211596886754e+00,-1.445030929774332229e+00,4.859156714505679098e-01,4.601914907713571257e-01,3.831760911889340315e-01,-4.291513042299002767e-02,-6.028769296654980757e-03,6.200545926572801486e-02,-8.818380324759710065e-02,-9.671499940992819844e-02,-1.199429906506176147e-01,1.739286938767218571e-01,1.811500335636404280e-01,1.863358693242209430e-01,-1.563500943150958333e-01,-1.386434718369446983e-01,-1.130554610959793177e-01,1.612162207982917317e-01,1.056054350036151196e-01,3.321746358884421213e-02,-1.985411005986885691e-01,-1.539356345132935067e-01,-8.851046156554853717e-02,1.582837068852638307e-01,1.542359687732601514e-01,1.377251551000219787e-01,-2.230826699793923146e-02,-1.101447739171017987e-03,1.662390071477159309e-02,-7.587174498086488028e-02,-8.721483105431124261e-02,-7.870237151914137586e-02,8.541234592890283028e-02,5.210564990363672488e-02,7.153555661511283928e-03,-4.441234205631535564e-02,-2.820543275664989802e-02,-2.471137664327305999e-02,1.777114915568437509e-02,2.141115207639196494e-02,4.564573396997729376e-02,9.639708962342834198e-02,9.430969026208142758e-02,6.643678226673928322e-02,-8.737942127394073000e-02,-8.595417055587990796e-02,-6.826506850923823311e-02,1.703444774430402209e+00,7.656942801284058575e+00,1.795563870544881979e+01
-1.627458109184255708e+00,-1.655130192754179497e+00,-1.645959219847303645e+00,7.395853772179337149e-01,7.851644268584321296e-01,7.651547799529222482e-01,-1.369426625561532829e-01,-1.623627922945483359e-01,-1.482544404770823054e-01,2.766971495444595086e-03,3.108046085550657863e-03,-1.374475021620277446e-02,-3.086725981394139798e-02,-2.891647393097591945e-02,-8.404848230511203361e-03,5.237073710570098323e-02,7.804647176060078295e-02,7.214538013735537214e-02,1.278308883541350201e-02,-1.461812964458499182e-02,6.858426341443688359e-04,-7.871601341889651604e-02,-7.976374378243610008e-02,-1.212184759327216421e-01,8.534254707166090415e-02,1.058025222501959295e-01,1.442653818248289532e-01,-6.412404996023050863e-02,-7.664965530112873016e-02,-8.148390602732442922e-02,9.739685500048228528e-02,1.059503111176812590e-01,9.443918755123596742e-02,-9.809376908879985368e-02,-9.935086561759785828e-02,-8.485479981219984369e-02,5.799684710462572196e-02,2.663603477883019766e-02,-7.054214241307381686e-03,-2.355012964614532425e-03,2.995391082928128626e-02,6.251850137064662860e-02,-2.981526641248859535e-03,-2.454908434794956032e-02,-5.054635605706459672e-02,-6.420436606297767052e-03,6.920238621012254204e-03,2.250627237419900936e-02,2.182605412967299596e+00,9.586037890270096895e+00,2.095526846804115451e+01
-8.397661371260464191e-01,-8.333810290105679863e-01,-7.912462967856757068e-01,-8.577966085228236337e-02,-1.098120031274253533e-01,-1.386793792427511440e-01,-4.063275640436394415e-02,-3.682961427171010244e-02,-5.725392030692356277e-02,-1.533055090286152000e-01,-1.382374079647557541e-01,-1.216745321722403073e-01,6.884870371658345645e-02,8.466800543706068383e-02,1.067246605969868756e-01,1.282114950837311418e-01,1.318111799923951666e-01,9.686959094140515369e-02,-1.547146177452102256e-01,-2.385484837464998120e-01,-2.560828023925182384e-01,1.081578828712163320e-01,1.624114379537566766e-01,1.813206412018105451e-01,9.372363594745516946e-02,1.157062113448069918e-01,1.030543955355984476e-01,-8.640894430312175134e-02,-1.277056092011294164e-01,-1.240422921016803015e-01,-4.489153615019310373e-02,-1.689735447396221307e-02,1.253681360024146499e-02,4.446695460973269787e-02,2.722306611976955948e-04,-4.199781004393727396e-02,-1.809389843827960420e-02,-2.546683229272308016e-02,-3.578917434961947225e-02,-6.676846095070000653e-02,2.062103492413819641e-02,8.030421928421044298e-02,-1.239839525809111609e-01,-1.366504623125103512e-01,-1.382898494853142535e-01,1.711381886488333726e-01,1.482301218280273336e-01,1.244223428545438714e-01,2.834861664025043915e+00,1.352412354403537087e+01,3.208506967184121805e+01
-1.462150249106204170e+00,-1.470390912938074557e+00,-1.439724965408878843e+00,4.337856010647114235e-01,4.568295464198094957e-01,4.260738408576495995e-01,8.542108161885166029e-02,6.492818551151786910e-02,5.505695609764592324e-02,-1.382063553363071517e-01,-1.476994810599291663e-01,-1.513854246817656068e-01,8.478561853720004149e-02,1.126510325562461723e-01,1.374413562107819620e-01,-5.786274384462948561e-02,-8.357519233420845906e-02,-1.017333450191509753e-01,2.624388788914513299e-02,3.130416291521179173e-02,2.291115604366252001e-02,-1.837817047366135936e-01,-1.604824049835970046e-01,-1.126044147161761599e-01,2.514786705607701678e-01,2.147931661495655897e-01,1.523733338666614090e-01,2.567147321466206264e-02,3.451714728007331673e-02,5.477264809178943733e-02,-4.328382822973750321e-02,-2.115618743893782003e-02,-1.105605025104746363e-02,-4.880559003790606309e-02,-4.043332104901443957e-02,-1.488635424095040120e-02,2.325749724328214640e-02,-2.630840096860741391e-03,-3.158065390988097632e-02,3.417682287032249716e-02,3.203824289040439061e-02,1.223401084504481019e-02,-3.590576735374840373e-02,-2.232353823593328027e-02,1.059205256242983298e-02,5.391123567891374820e-03,1.807274327134651172e-03,-8.353690764884395825e-03,1.904522220730790805e+00,8.729416892177491505e+00,2.061345574718072271e+01
-1.535754169419847992e+00,-1.526355438760962802e+00,-1.484673494669874527e+00,5.887452663323663460e-01,5.732767969643746131e-01,5.134416798098446755e-01,-1.267763981784565952e-01,-1.210699646218231229e-01,-1.030267344716886690e-01,-1.127393508145771439e-02,-3.330742623550484588e-02,-4.627279260116771986e-02,1.482761769777606875e-01,1.877041240007084333e-01,1.989023209950516458e-01,-1.416359522882811861e-01,-1.574404110134765278e-01,-1.336606302557463710e-01,1.363908042846135593e-01,1.124960166070654577e-01,5.149217530759999523e-02,-1.369701111288663398e-01,-1.380528238493568538e-01,-1.156530890863303324e-01,1.463110358549633838e-01,1.948826577975961982e-01,2.194249534544527314e-01,-8.445888353209127231e-02,-1.090925552181554736e-01,-1.063007743283767847e-01,4.254966313800952887e-02,5.096428354329148036e-02,5.375791810626316669e-02,-3.498649843768110446e-02,-2.189314017953104125e-02,-2.708174036619242012e-02,-7.899355926177559217e-02,-1.264953696450950016e-01,-1.369410731930071068e-01,1.278339639407585770e-01,1.412900102128670510e-01,1.173164695458875501e-01,-1.075739645363705949e-01,-8.125135456847465409e-02,-3.639088958812240759e-02,6.859496129928378816e-02,5.456443974226789229e-02,3.582517103177419032e-02,2.293859464901064182e+00,1.019849424839121177e+01,2.288568466451369332e+01
-1.297549877123985063e+00,-1.265513184552130577e+00,-1.222731605922439568e+00,1.982255208420313775e-01,1.490135242496124501e-01,1.104256082497740155e-01,1.269713166141792360e-01,1.182305666683504952e-01,8.462722445466751287e-02,-7.178425039369297489e-02,-3.751661588321299895e-02,-7.734889274908685226e-03,9.649738349098163290e-03,2.306517158798312983e-02,4.246461674225160410e-02,4.721278292894302842e-02,6.579384911018675182e-03,-2.168405064357978654e-02,6.234995461197083422e-02,7.504687657065407802e-02,6.948458725030720595e-02,-1.645416998758972016e-01,-1.661137159021655041e-01,-1.730371439961645996e-01,9.063391095899249114e-03,-1.013654317380579747e-02,-2.266815435170883852e-04,1.220877212204834056e-01,1.247332019156172506e-01,1.125738839222242965e-01,-2.516844257925144809e-02,-1.321749188906547363e-02,-8.605564256464411782e-03,-6.248478271552779240e-02,-3.151553890166509941e-02,6.252023321236331588e-03,8.792625869103794234e-02,7.039958800879858591e-02,4.585825815778612341e-02,1.307950212369479552e-02,-7.899926602811776014e-04,-1.157640198158002565e-02,-7.513051456814524853e-02,-5.172875083756377224e-02,-2.217236692919359597e-02,2.021986034735419671e-02,9.565521204637723873e-03,-3.837114808766755366e-03,2.042468366289443171e+00,9.318290171070156447e+00,2.169533142415268756e+01
-1.669527426014297600e+00,-1.676327016353501120e+00,-1.634768991093924484e+00,7.485575753862125925e-01,7.577221972848597886e-01,6.921191243877179433e-01,-9.495569350948332432e-02,-1.227202898875767167e-01,-1.246235603678031018e-01,-2.297164904002881036e-02,-6.569113239694943270e-03,1.270594771351308064e-02,7.671866425296389180e-02,7.471287037160086186e-02,6.509113860736445711e-02,-9.819653280056243883e-02,-4.249772358484234236e-02,1.238273192614167822e-02,8.812924218939860443e-02,1.631366582743372026e-02,-3.899426007692406715e-02,-1.564824339116474838e-01,-1.127051900402320367e-01,-7.596601118709150890e-02,2.350707085300290933e-01,2.378563885885618401e-01,2.043788760463545462e-01,-1.588014044220694698e-01,-1.938497681316816990e-01,-1.602935773595166868e-01,6.025391682756690848e-02,7.543932889070284475e-02,4.505141360093307262e-02,-6.251209978835195469e-02,-6.143054878451770229e-02,-5.912495939842723341e-02,7.513431576287726843e-02,6.845725034005942233e-02,7.871306213302410593e-02,2.943796245476817258e-02,5.369000326022447395e-03,-3.086421855957108273e-02,-6.780227541155316173e-02,-9.851827223760753482e-03,5.066983296732353870e-02,1.826283375827825878e-02,-9.676056078347197373e-03,-3.630261389878693817e-02,1.819714183383987161e+00,8.279495695609210060e+00,1.941871152430522685e+01
-1.499280629837289380e+00,-1.529015771021990711e+00,-1.505484958533503947e+00,5.796426599266049084e-01,6.146823263099139290e-01,5.584332087504650932e-01,-9.873353642332936830e-02,-1.006286126420204013e-01,-4.171201647778591259e-02,-8.022986863111827849e-02,-8.725838781515232734e-02,-1.207085062445561879e-01,1.127095689640146003e-01,1.275770458876042124e-01,1.403175083814799384e-01,-2.644399344129371235e-02,-4.473934307805062238e-02,-5.124042715656809688e-02,1.999297743975935598e-02,4.862150688992127739e-02,5.569398544634140968e-02,-1.672877571893535142e-01,-1.882591417489200836e-01,-1.806645212797796385e-01,1.748475948695316362e-01,1.791834218121731159e-01,1.485592706872635727e-01,1.017400405119307100e-02,1.563902081871326732e-02,4.476424051581572028e-02,1.522073633302491701e-02,-2.429200398622443149e-02,-6.234548398168849453e-02,-1.336097434198969813e-01,-1.106139242914063181e-01,-7.812348034199671776e-02,4.018940408290543054e-02,7.839532025808038096e-02,8.919784964833804564e-02,9.619277734614407882e-02,5.283639533515291364e-02,1.985657361156827755e-02,-8.328948324344886966e-02,-5.557825789623364876e-02,-2.608504882265023569e-02,4.020983814569442649e-02,2.367456179138592923e-02,9.707911634061658704e-03,2.406295269346394594e+00,1.111151390317570531e+01,2.597515138915880684e+01
-1.286656149540860383e+00,-1.240055741041135029e+00,-1.178712804344465681e+00,3.058122450628391054e-01,2.022380126612135232e-01,1.121683698704599441e-01,-3.111949758407782374e-02,4.270338012345586270e-02,7.326852816875288610e-02,-1.200494219314122424e-01,-1.543868404868979360e-01,-1.407031077811002062e-01,1.515105370147106223e-01,1.552741522084579717e-01,1.195799246141419081e-01,1.445023654966529070e-02,4.276502344728058680e-02,6.053884694926827542e-02,-1.903778350762552751e-02,-3.711812087430166329e-02,-3.772619270725196400e-02,-1.380880774231902641e-01,-1.481748156163198715e-01,-1.572584099557245430e-01,1.171367189468173337e-01,1.269679376852693720e-01,1.241393502798147364e-01,7.709446313586105007e-03,-2.321811648302163356e-02,-1.917703379322791002e-02,1.375438535240847832e-02,3.715393948336866148e-02,3.033431588283780692e-02,-7.549571028523013871e-02,-4.173516636907665528e-02,-1.874308484654481702e-02,6.504814830908600687e-02,-7.706312702924627027e-04,-3.400968204064627742e-02,6.711314957951216090e-03,8.372348621468894692e-02,1.206379341779446474e-01,5.262511755730156504e-03,-4.026774896387518704e-02,-4.366588942397338358e-02,-1.681359119442206104e-02,-4.981430944004965576e-03,-1.056996023353042741e-02,2.003171002976579018e+00,9.133366885540047164e+00,2.095667103171255619e+01
-9.761517790899558733e-01,-9.219653696251057795e-01,-8.726632989179707867e-01,-7.409993827577908421e-02,-1.129167055877077219e-01,-1.243844824514941799e-01,1.066689756102234474e-02,-3.256890959937591007e-02,-7.675962736055647051e-02,-8.498791199974284338e-02,-4.814549347219326120e-02,-2.225751535078515642e-02,1.415892518745684447e-01,1.163144213795717086e-01,8.962588903827549414e-02,4.138987586223085054e-03,1.437705593754702756e-02,1.528890649192608114e-02,3.142973056021617327e-03,5.294280150912536106e-03,5.814499576454705901e-03,-1.958051050973495522e-01,-2.158244428878267063e-01,-2.121846802982176317e-01,1.283538943968346446e-01,1.354341938376906196e-01,1.124861643679251622e-01,3.583489894855651503e-02,4.119948802350673761e-02,4.895993553691795758e-02,4.259149244395772638e-02,6.345408430255372600e-02,8.523026198767585937e-02,-4.883892228227415533e-02,-1.983506464268742359e-02,-3.058195901809634010e-03,-2.165790959639398577e-02,-6.211823338664214378e-02,-7.104941796974001411e-02,-3.646407785020790507e-03,-8.601002099972219692e-03,-1.300392527642086661e-02,-3.513557700109423698e-02,-2.639928286003852959e-02,-3.099072794809126785e-02,7.410203241762246262e-02,7.238458511411267893e-02,6.901258336508615809e-02,2.809401612352350419e+00,1.306830976743109218e+01,3.071677840030507056e+01
-1.567687739433176075e+00,-1.571084099676886003e+00,-1.542946173896440731e+00,6.634638666809504759e-01,6.626106494819021808e-01,6.182876978843262483e-01,-1.699202676578571436e-01,-1.601012678566860192e-01,-1.323138071392427062e-01,6.339756027070254929e-02,3.480042089460658183e-02,-9.980156782616794731e-03,3.881946315494741451e-02,6.804200211076769089e-02,1.143168497598124611e-01,-3.560570110778341762e-02,-2.088813023834999380e-02,-1.669829499558181385e-02,1.042321993656552953e-01,4.484875493173313965e-02,-9.091881505073999559e-03,-1.661556633816025641e-01,-8.810479635653688246e-02,-2.199365871866200417e-02,6.337019551587889932e-02,9.271228757361485440e-03,-3.119112327606095650e-02,-8.304518257222630317e-02,-5.834664732515793678e-02,-2.690052172642080908e-02,1.087076399439660390e-01,7.426433488000033778e-02,3.132947758014605760e-02,-2.336366632691574963e-02,1.121549864662305107e-02,3.596960598584102858e-02,-1.904880057151499967e-02,-2.920891043884560681e-02,-3.359515096650914773e-02,1.450130167956157068e-01,1.097767775700894538e-01,7.834855930376215249e-02,-1.869174494059148706e-01,-1.309890973723617513e-01,-7.434664171514401843e-02,6.493980569188315122e-02,4.406270178727925840e-02,2.094308268168273285e-02,2.162065004952024694e+00,9.497994378334620791e+00,2.084326765084711397e+01
-1.488123204889686191e+00,-1.443339473295910169e+00,-1.326185526539528148e+00,5.199369505843566275e-01,4.605301239131522339e-01,3.335226256917164234e-01,1.107016774192756542e-01,1.299304088745286134e-01,1.054156076416240539e-01,-2.676934813417506942e-01,-2.863536541371488608e-01,-2.426764519061307968e-01,1.619109809077508844e-01,1.811068275770662261e-01,1.554226874470042707e-01,1.255745871347422812e-02,-2.934253116370129366e-02,-2.260413706866130912e-02,-1.242050484081809320e-01,-8.549747525760217903e-02,-9.048797306847670974e-02,-1.296310075290256769e-01,-1.567840804638664931e-01,-1.421540140220104720e-01,2.174083064245289632e-01,2.411548187829637979e-01,2.292496874121708050e-01,3.394427284768551656e-02,5.743074584899025142e-02,6.186411733259602336e-02,-2.777834941033200875e-02,-4.244652987104532288e-02,-2.020486989806051167e-02,-1.711738686915939556e-01,-1.762608403476437213e-01,-1.493828032514664395e-01,1.181129265662174688e-01,1.030819439440475160e-01,3.665709608701541583e-02,7.561928746115648137e-02,9.360421474311121648e-02,9.036296242471245077e-02,-2.535516242464119774e-03,-1.155718555181527163e-02,3.135143403504578319e-02,-3.888274052807184217e-02,-3.512142257518199862e-02,-5.005107250044985717e-02,1.653572581635603278e+00,7.567046609485704067e+00,1.812477631589949567e+01
-1.317644748486434647e+00,-1.245270879438217015e+00,-1.129249703137485961e+00,2.968239286957599643e-01,1.938150699371545549e-01,7.946771857241805015e-02,1.028770204243450448e-01,9.200803542538711632e-02,5.300095994624026002e-02,-1.422500005449513216e-01,-7.422864311004924442e-02,-2.861236338579903685e-02,9.576463904090333490e-02,2.789184715587225000e-02,-2.543678691344031934e-02,-5.266644161775230898e-02,2.389491473804145755e-02,8.796908316250105775e-02,2.203703876627219338e-02,-7.062767921611973199e-02,-9.250670997951231100e-02,-1.872784789792244775e-01,-1.383621533610467913e-01,-1.182320716483525047e-01,1.480611914767223924e-01,2.057964276364056266e-01,1.865126345382778772e-01,6.122673375867844492e-02,-3.627967714648720580e-03,-8.807183506709668694e-03,-4.114444608718732799e-02,-5.733410722272811594e-02,-5.851836718743159971e-02,-9.984427459557596030e-02,1.373379962273895034e-02,7.175750739812694623e-02,1.190265551649575676e-01,3.240097045968087092e-02,-7.413012224243575171e-03,8.907401214091063835e-02,3.362900164567393657e-02,-4.833792991202260844e-03,-1.173591039180494344e-01,-8.431292893434944036e-03,1.710417268017696418e-02,2.341458525059537596e-02,-2.517853534701723975e-02,-2.209887264395696271e-02,1.677997620891697572e+00,7.910327778819012501e+00,1.877354415065162740e+01
-1.385879597798148621e+00,-1.381381929213227888e+00,-1.371028051755498911e+00,4.161123548696178953e-01,3.965041804547527748e-01,3.810853023800727657e-01,-4.803493936172481549e-02,-4.108181597797076756e-02,-2.950129574327539639e-02,-7.794038093743223261e-02,-8.222645194818437031e-02,-9.577244749491349574e-02,1.230660594629946203e-01,1.320738671338662074e-01,1.342310058643304826e-01,4.491256184033885074e-02,3.642183065631323519e-02,2.285414419675986172e-02,-7.141500075476890641e-02,-2.804419879069154978e-02,1.651411929036024351e-02,-5.461504037358073244e-02,-9.963916912727455166e-02,-1.560526744234231045e-01,6.752718066848516221e-02,9.180848148823260446e-02,1.378696394493934552e-01,-7.297778119405026742e-02,-1.026116434854727200e-01,-1.203170457072067073e-01,4.876479164908653630e-02,5.724175949888601206e-02,5.828508534936772956e-02,-2.479537660053355089e-02,1.362898130302305118e-02,3.329264383229389029e-02,8.404883455328962527e-02,4.841544902426075242e-02,1.629572770094786516e-02,-2.729935627779159560e-02,-2.049734274874175782e-02,-3.663321506536851291e-03,-5.203577267752521052e-02,-5.178315626413015210e-02,-6.466852922809665505e-02,3.069168638218310041e-02,3.126473425682346763e-02,4.064002783062378721e-02,1.742152023405104444e+00,8.079312718861473286e+00,1.929238848303157994e+01
-1.078383067319966804e+00,-1.062527594257780761e+00,-1.046218321315890210e+00,4.404873802486006240e-02,1.380171140013162351e-02,2.295403374371454523e-03,4.900258970272300396e-02,2.702988497171522272e-02,9.255186021339512721e-04,-6.016517377821497398e-02,-1.549136378437691169e-02,2.102086040125581909e-02,1.476415571576182063e-02,-8.009502409674108814e-04,-1.081081063787918059e-02,3.974734701724133568e-02,4.020999265909129539e-02,1.911769213517315255e-02,9.347369330769367268e-02,9.845597380653281494e-02,1.030183191368587298e-01,-1.917235593914771719e-01,-1.752863781283774125e-01,-1.487316281598281553e-01,4.478848631330533542e-02,5.883510910654873860e-02,5.815559657572579033e-02,1.497406178571465407e-01,1.136240392491661422e-01,8.304205452284206534e-02,-7.958212204999005890e-02,-8.097414262970510646e-02,-7.604930291561907973e-02,-3.972297065131803750e-02,-2.795250748070461644e-02,-1.383987824213086040e-02,-1.384902045842538801e-02,-1.037508822040287410e-02,-3.105549193344154905e-03,8.561290677254088100e-02,8.824212121995396452e-02,8.013730951744518771e-02,-1.996910129088081548e-02,-3.193007154610930098e-02,-3.717074695534836742e-02,-3.770649743363715944e-02,-3.479359663450584672e-02,-3.173197553381416208e-02,2.589192845222757722e+00,1.188648726874588313e+01,2.849001272049730105e+01
-1.321850619888376155e+00,-1.290022454289767584e+00,-1.243331011354390281e+00,2.123596514246176292e-01,2.002090855203155773e-01,1.810147261854882783e-01,1.385070926159109872e-01,1.029263720183089814e-01,6.223993743502300585e-02,-7.718918512885411531e-02,-1.038273189264090207e-01,-1.099930066155441477e-01,4.953653901968375212e-02,8.660874820986527722e-02,1.006635915017298766e-01,-1.687477343378902123e-02,-1.567554356062265605e-02,-1.552926301959481857e-02,6.785945994607592291e-02,4.343386353986113807e-02,1.235677741885346341e-02,-1.035007891994106088e-01,-8.063922525260179552e-02,-6.233160823250827320e-02,4.060023576872702489e-02,5.454942025079263790e-02,6.780046777233698918e-02,1.073968318463144542e-02,1.136329057340362998e-02,3.449191371067113904e-02,4.310716626208210139e-02,3.436450898694711625e-02,1.879274833398138569e-02,-7.965661512576353853e-02,-7.928696626478386189e-02,-7.277820269744701698e-02,-1.871971827922130210e-02,-6.591453946890653282e-02,-1.003850212738573305e-01,7.192853712612827521e-02,1.302359725728628737e-01,1.550788322906727357e-01,-4.792865038340250045e-02,-5.979728170169232304e-02,-5.508315761547065426e-02,3.127729012310935530e-02,3.164137319800081061e-02,2.711424109725880244e-02,1.935263807798059288e+00,8.729152578444979937e+00,2.049611631232046705e+01
-1.300573359042361599e+00,-1.283961131952787493e+00,-1.259039401656629531e+00,1.758250469052805576e-01,1.590036671706492599e-01,1.659269971862678550e-01,1.425842045848777218e-01,1.549621712440185373e-01,1.364256571315999589e-01,-4.740937704871926728e-02,-5.406951287138034301e-02,-7.313587276166771955e-02,6.434485095468822635e-02,1.696836336774752707e-02,-1.257529393343393039e-02,-3.936606540763121914e-02,1.025905461481618590e-02,5.972083814506017746e-02,8.702409175927282303e-02,7.294909942259540647e-02,3.628106803612676790e-02,-1.574571496712621477e-01,-1.761965172729396401e-01,-1.831261003703174017e-01,7.958492987892624992e-02,9.598886772558143377e-02,1.266279765204522678e-01,-1.342759283665077331e-02,-1.525227802990382353e-02,-1.875611194065179843e-02,4.740184746915983294e-02,6.799963855091389897e-02,5.695504273275828200e-02,-8.576469298409744590e-02,-1.086130052445877237e-01,-1.052165346797738904e-01,5.195901607660553118e-02,5.250970878692055172e-02,6.355229678537184512e-02,1.551494655598791884e-02,2.174188775095415790e-02,7.306497301921390138e-03,-2.349849524088765823e-02,-1.794154813055812495e-02,-7.916177757250578151e-03,3.366493300979139531e-03,3.737737084776617674e-03,7.035650348025354259e-03,1.641602719299647406e+00,7.606979074171054123e+00,1.826503833196808912e+01
-1.727708444491373507e+00,-1.728592489091119067e+00,-1.701996067703680060e+00,8.525981884539162170e-01,8.394487989065575473e-01,7.793404395684389030e-01,-1.016122730131741037e-01,-9.246263255521321167e-02,-6.144548440356489144e-02,-6.339361036931952242e-02,-4.913722009364188820e-02,-3.604896960626780694e-02,-2.761115892055019533e-02,-3.798965405026737824e-02,-5.221396444147442112e-02,2.626953304248779222e-02,3.540982336439335576e-02,4.999210716801818360e-02,9.459992591581296850e-02,8.023021822218935617e-02,5.876765362675904353e-02,-3.193556036287718836e-02,-2.701278305290590043e-02,-2.014502218774928341e-02,-2.759915443660185957e-02,-1.766457289313795587e-02,-6.580218994472256805e-03,-5.536443783813763120e-02,-9.113305973946081440e-02,-1.173248690263333505e-01,6.943283650784476402e-02,1.045021368831537401e-01,1.226513752043243699e-01,5.753382759533274410e-02,4.050858824229718741e-02,3.568583257512469159e-02,-5.765381078994520625e-02,-2.747462837042915357e-02,-3.779403227592653246e-03,-1.074848082566627894e-01,-1.451701949478206022e-01,-1.701323140775969633e-01,1.035989691869322049e-01,1.244240099292120288e-01,1.268247363519595938e-01,-3.273453706705799736e-03,-7.553488570223440210e-03,-3.345324262619657138e-03,2.001514755089518260e+00,8.713898131333026598e+00,1.950750985873632359e+01
-1.422976156454982766e+00,-1.325758808185313109e+00,-1.159743284220848603e+00,4.061737647826350051e-01,1.460798669840205899e-01,-1.638352524533055188e-01,-1.995330674152169526e-02,2.225953859466795748e-01,3.844251365740472548e-01,-4.690262386029456915e-02,-1.402256916827171462e-01,-1.169658619913417630e-01,1.148786385168435037e-01,9.667939277568526890e-02,-1.180184570204691023e-02,-8.639057603906329097e-02,-2.758368211327366648e-02,6.914569129448670803e-02,1.813710071759181697e-01,1.093634881758393795e-01,5.433576620257347944e-02,-2.946403947364663045e-01,-1.966263037722223717e-01,-1.500530950869730651e-01,1.942767080692396342e-01,1.140111580714670420e-01,1.049328841338152962e-01,3.689929520670153645e-02,9.763963650919027515e-02,8.391423550677773457e-02,-3.519790030728565250e-02,-7.458044835590239841e-02,-6.631833599004145763e-02,-1.058377025313568948e-01,-8.497514718203506845e-02,-6.619119385753653717e-02,1.749326053415707280e-02,2.624815087572244382e-02,1.253029889743546496e-02,1.313804993656285114e-01,7.538277325854063349e-02,2.429833517606234949e-02,-1.711341637542970751e-01,-1.254320771367574694e-01,-6.554539426402140878e-02,1.007674688138450458e-01,8.735553530451027615e-02,6.701125496826194905e-02,1.680474566107920342e+00,7.758530155167123077e+00,1.813152828076123058e+01
-9.509808755872409813e-01,-9.517148721973762715e-01,-9.378670418704144751e-01,-1.287283292701059123e-01,-8.253023099872502932e-02,-4.404995732547933862e-02,1.416176084304502925e-01,1.183101752238561316e-01,7.025936205237354182e-02,-9.651000105072053692e-02,-1.235108176964145044e-01,-1.219343875706756647e-01,-1.195732721237902363e-01,-1.264482649234478784e-01,-1.194602668563367054e-01,2.212345598762187060e-01,2.496785538556100525e-01,2.459742978206582720e-01,-7.187657971582836480e-02,-1.150084914599865255e-01,-1.520567499384385679e-01,-5.424571567493902124e-02,-1.133420841482998299e-02,4.988426522623937848e-02,8.840716603725433387e-02,5.304209917166829991e-02,1.593371329465353980e-03,-6.283699255152931651e-02,-1.650945833357860340e-02,2.925316055473000526e-02,-9.741037875887682829e-03,-5.021618003992701917e-02,-8.011791500716058945e-02,-7.105878524820581632e-02,-6.212285882389663449e-02,-5.661208308849692561e-02,6.461931116314614809e-02,8.379477600727550102e-02,8.191592424824446772e-02,-5.777854471170769390e-02,-8.007277802301253355e-02,-7.896182329854668780e-02,5.128237109361784285e-02,2.952687826101042801e-02,2.192317527916709530e-03,5.681646210850752748e-02,8.566652029602905838e-02,1.103823834327016806e-01,2.818098044076860820e+00,1.314839428276449063e+01,3.227915859313635849e+01
-1.172441407623353360e+00,-1.150238843764259222e+00,-1.114228325941300168e+00,2.028760543269114355e-02,1.502583069630907160e-02,1.515780048916452218e-02,7.474514054750519554e-02,7.085558317441038867e-02,5.012561980219193414e-02,3.224282976535671526e-03,-8.581480066304290888e-03,-1.164399763528210612e-02,9.907099496266955074e-02,7.404812012754455330e-02,3.420707852250087083e-02,-1.389437613093208457e-02,9.651339068795783405e-03,3.773320099841518532e-02,-5.580000446255789504e-02,-5.464190215656387212e-02,-5.905032635125900820e-02,8.684153660859044582e-03,-1.061378052926469952e-02,-2.971218450019393401e-02,3.403336690141228749e-02,3.283621564141186999e-02,3.973555858086731674e-02,-2.928699516148994264e-02,-1.788390722111091180e-02,-4.298517922527396451e-03,2.552490906259963265e-06,6.404624383563343668e-03,1.201139108627198582e-02,-3.071160512301659637e-02,-2.440042350678891733e-02,-3.182468450613988586e-02,6.909256330873016216e-02,4.262284996936782644e-02,2.706670576286911156e-02,-1.022264305701654427e-02,4.763540517378392868e-03,1.154853441227691666e-02,4.969771602673655336e-03,1.409029108326683571e-02,3.200693855977108232e-02,-1.537714039212857275e-03,-3.740677085236037824e-03,-8.686105738706709906e-03,2.359506592212919696e+00,1.092713913384952740e+01,2.694589299574871077e+01
-1.278299500195849925e+00,-1.278591207826153653e+00,-1.259287539521340094e+00,1.805611295170055641e-01,1.792440033973231595e-01,1.775976793827687972e-01,8.039164627110664818e-02,2.261779133008430878e-02,-4.268984096761111596e-02,-9.369267091875189968e-02,-3.434242702001101023e-03,5.092468293820604647e-02,7.235655484060901643e-02,4.519995695764410931e-02,4.653251837024911797e-02,3.128324710602580633e-02,3.854847366945949455e-02,4.731409100946092766e-02,3.550398593262418107e-02,2.602565920867309576e-02,1.070208633631379363e-03,-1.237369764836538794e-01,-1.341693882543092686e-01,-1.310229404891153360e-01,6.831806722631780793e-02,7.816043305614489567e-02,8.125206654403893669e-02,6.180995422340731377e-02,4.285102360036206065e-02,2.492204900090740083e-02,2.185997673985234230e-02,2.273471632174796017e-02,3.312869280189786186e-02,-1.411501581330406041e-01,-1.002030791095550877e-01,-7.307560267010740351e-02,6.110715802154953469e-02,3.894166018698488885e-02,2.424967918751172805e-02,5.417454296691569943e-02,6.212814554439227699e-02,6.618186310838283792e-02,-2.164485984659831469e-02,-2.896991167604853756e-02,-3.764664382173574936e-02,-8.613110112290529516e-03,-1.088634469541897680e-02,-9.297986236275986027e-03,2.438721085870124039e+00,1.111858085471267366e+01,2.650983541200630356e+01
-1.575663484416899740e+00,-1.601913601528085040e+00,-1.572488879570988596e+00,5.791909415108295045e-01,6.019375526509448404e-01,5.473676717162219152e-01,-4.383205210193835688e-02,-4.541174155500100201e-02,-3.866498634591714056e-02,-6.509953891724129527e-02,-2.250162879299237237e-02,4.311774520729173138e-02,1.561688102308852744e-01,1.129217090075282509e-01,4.290810704013293952e-02,-2.874413527597943774e-02,-6.783337899419503159e-02,-6.809492187514942785e-02,-6.439766091038624796e-02,1.319731855369977135e-02,5.911016801487384287e-02,-3.976379299779640025e-02,-8.893954286336887283e-02,-1.408656501498551095e-01,3.434146832346297168e-02,4.970956142379302778e-02,8.968454983187373886e-02,7.961508310197343286e-02,1.051655602290038488e-01,1.111499421206311594e-01,2.022134535640220110e-02,-2.193150194439053360e-02,-5.667082800944781007e-02,-4.825063761143970342e-02,-4.913056644952596558e-02,-3.687079546385991363e-02,5.813583805174559610e-02,1.202101347899258155e-01,1.391705217260801319e-01,-1.291978321030105292e-01,-2.024952339460099893e-01,-2.168890074517056399e-01,2.692653048780047076e-02,6.962910113344024376e-02,7.485781112889390576e-02,4.068505081736865925e-02,2.765484801298172951e-02,2.337792653502912196e-02,1.859435793524848668e+00,8.299976096623897348e+00,1.887863317833963706e+01
-1.344633306793405314e+00,-1.341783591979858414e+00,-1.319499006893368298e+00,3.464001050235877566e-01,3.534303516799533473e-01,3.480976015038011462e-01,8.037196658657273785e-02,6.930816513779133881e-02,4.321284805438319748e-02,-2.009583788763648349e-01,-2.157051533966716783e-01,-1.985621834834519761e-01,8.146845690002454954e-02,1.144437283664577615e-01,1.129997808350351740e-01,8.379749776839023889e-02,6.106654700140667219e-02,4.373108853257256373e-02,1.917143473220422889e-02,1.744117958625789402e-02,2.448543327753115520e-02,-1.217040386478275005e-01,-1.089168583271701574e-01,-1.033945006068743705e-01,2.336682233334709188e-02,6.189898059973433439e-03,-5.852624166988351813e-04,8.982966694081868930e-02,1.062261922767561567e-01,1.046910333458854481e-01,-5.467178363140108577e-02,-5.766161763341440261e-02,-4.439343984019929190e-02,-8.257531344214158464e-02,-7.477517570596230179e-02,-6.733277737097298488e-02,1.038588954025571331e-01,8.149494892287367787e-02,5.626809867596812426e-02,1.644638990217185681e-02,1.160581695050312730e-02,-5.469432398168063390e-03,-3.565898795075576194e-02,-7.500840228509487312e-03,2.309228732965346725e-02,-4.398945041988742803e-03,-1.478547794203238439e-02,-1.728485859346074946e-02,1.843336564477062955e+00,8.510867120803979446e+00,1.974506185311138751e+01
-1.709794441912410479e+00,-1.668344139246128011e+00,-1.565195594317436045e+00,8.076456925449045920e-01,7.244300278857251918e-01,5.430443183446702626e-01,-1.407010146231929548e-01,-4.852588113198353509e-02,8.041575262281480674e-02,7.013144265896349705e-02,-4.985496331305575707e-02,-1.698863883495056459e-01,-4.245304973848119945e-02,5.355345838086039006e-02,1.524437390102698908e-01,-5.202098821538646278e-02,-8.432947716518951475e-02,-1.152417677751447489e-01,1.099347741310306714e-01,1.270669853652491577e-01,1.320780661788240329e-01,-1.565954955173794183e-01,-1.533117149387734635e-01,-1.432135506747241604e-01,1.780877905362434621e-01,1.085931285285100245e-01,5.561657790640161386e-02,-3.679193337686756382e-02,7.568069963771607844e-02,1.338219467831352205e-01,6.834981955868814178e-03,-1.285871400578303125e-01,-1.914215062279159829e-01,-4.746635410401566640e-02,6.047101705484132783e-02,1.125624300966007879e-01,8.713117648487260503e-02,5.322917255432274564e-02,3.156843347193762778e-02,-1.332439451215207127e-01,-1.244013144985701147e-01,-9.151148546403299611e-02,1.873126105724887136e-02,1.443149351301080408e-02,-9.909791295314440696e-04,4.090996737237780762e-02,4.020177196167930289e-02,3.616543858891228813e-02,2.107094654929543953e+00,9.337019620643015827e+00,2.101688683438770155e+01
-1.274230673707189343e+00,-1.242454724783512932e+00,-1.195279660595233828e+00,3.177174485360510503e-01,2.521355081861110792e-01,1.715472285942753194e-01,-4.314501019502902518e-02,-7.767998937702496297e-03,2.711518467972801050e-02,-1.597634181787826319e-02,-2.081534111468908918e-02,-2.003724463337166334e-02,5.786050448887107567e-02,5.035378851736169864e-02,3.479792900682301265e-02,-1.380139725197352674e-01,-1.346730122594560486e-01,-1.231071397253711286e-01,9.885348728188007861e-02,8.508361650097136242e-02,6.879015749915380618e-02,-9.995260468032569900e-02,-6.734452434369496421e-02,-4.214652385421169961e-02,1.242615420388117620e-01,1.045420114770101022e-01,9.375143860911133720e-02,-1.492243988462390106e-02,-2.032159993415359397e-02,-2.958306353517528228e-02,7.397278998358507163e-03,2.570298901479231915e-02,3.800569777948576561e-02,-3.404399131144640600e-02,-3.112876694093868676e-02,-2.287953117254017468e-02,-2.821725363181407879e-03,4.862268405287173065e-03,1.381626650373250775e-02,-2.486546021222070524e-02,-4.462379309690805984e-02,-6.059677839504413327e-02,-1.323444882782482540e-02,-5.186163412169264575e-03,-5.029524373243124402e-03,5.525766262182178062e-02,5.175616449464557484e-02,5.092726877798685325e-02,2.853464336349027963e+00,1.272664328828740032e+01,2.954109625921272198e+01
-1.106217149859489712e+00,-1.106121025150284876e+00,-1.092515883359642004e+00,1.044074929251026795e-01,1.081693554939217455e-01,1.152460266149927942e-01,3.819290484567526567e-02,4.564420503090255155e-02,3.429925324495886052e-02,-7.141015505648413975e-02,-9.023241109038036833e-02,-8.731433048956563359e-02,2.666611738919589039e-02,3.652942853387107502e-02,2.997416808635740976e-02,3.521516257627701346e-02,2.626930111860799333e-02,1.549022436942407675e-02,-6.800262183683289385e-02,-6.272948966759635259e-02,-4.346544034160759046e-02,7.231664625863014340e-02,6.069470706719336250e-02,2.988074241472338244e-02,-6.300376309606681158e-02,-6.150984187885546323e-02,-4.857576815572313411e-02,8.817465259287973756e-02,1.019400887690505159e-01,1.089316576705739170e-01,-3.122668972985024813e-02,-3.127975686971633945e-02,-3.153823982326337677e-02,-5.765760986068271116e-02,-6.526819024396994517e-02,-7.469248098092542976e-02,8.598360875498542791e-03,2.368236070163480880e-02,4.133916357087880772e-02,7.181382568857040682e-02,6.753177532514267889e-02,5.553122127695364618e-02,-8.762483937060014383e-02,-9.583513830541028067e-02,-9.251303215323766760e-02,3.995137970654234760e-02,4.268884880730353798e-02,4.006399162900717986e-02,3.025347717943645431e+00,1.382420258969990989e+01,3.256635855792735157e+01
-1.196777478361730429e+00,-1.161840503098284794e+00,-1.114740165476929112e+00,1.772599635997400280e-01,1.367767635096739098e-01,9.952119576265976153e-02,6.151524717812012488e-02,5.064861158724622003e-02,2.337092899822725348e-02,-7.931147121284096158e-02,-4.787007472323021040e-02,-2.047199200951215284e-02,6.597117107168068428e-02,3.812500488009657601e-02,2.022139327567760991e-02,-4.329588800140303506e-03,-3.232902020516322753e-03,-9.834408926308100748e-03,-1.914430759475951871e-02,2.220919308548997134e-03,2.400710359439434810e-02,-8.956424083574976436e-02,-7.936006068539383507e-02,-7.093036937178343049e-02,6.526805519785038034e-02,3.818655725993082284e-02,1.846386461660128042e-02,1.132039996088223394e-01,1.028323625520570078e-01,8.316661427848252852e-02,-6.270088528311375253e-02,-4.478464071094769711e-02,-2.855897110211075632e-02,-5.526240997600155580e-02,-5.948245909990836078e-02,-5.709263686014000999e-02,3.430037747185413731e-03,1.428658198186167662e-02,2.427483164511513164e-02,4.561430527180488498e-02,2.075243396699611928e-02,1.966532376858486260e-03,2.673675649894797363e-02,3.814262028451889663e-02,4.046366527847401057e-02,-5.183207640346267769e-02,-4.533766019883789938e-02,-3.377453698400192245e-02,3.189554561217289752e+00,1.475056757448568590e+01,3.452954288854736831e+01
-1.471766235700380898e+00,-1.499309646112152894e+00,-1.507697762427457455e+00,3.457255044978830294e-01,4.156529459789882197e-01,4.690444794888187774e-01,6.679678851014556051e-02,1.658276394296919268e-02,-3.967251719918438169e-02,-9.015503403799920989e-02,-9.540252137111653041e-02,-7.313859021832891383e-02,1.701850378320254042e-01,2.013478375436239254e-01,1.982271460282770681e-01,-1.856507885276160313e-02,-4.887314021140976017e-02,-7.151967259763906959e-02,1.242336442619338122e-01,1.256860058161646254e-01,1.208988917326086765e-01,-2.550422011376114462e-01,-2.403819805314671432e-01,-2.359099163373162278e-01,1.544488353301846084e-01,1.391686327586260097e-01,1.486148260152558298e-01,-1.745302471359586743e-02,-1.417490481511188283e-02,-8.055601213229499069e-03,5.905699018462643585e-02,7.254652276652019671e-02,7.677888795515915021e-02,-1.256719194326847699e-01,-1.286826984406310992e-01,-1.269495189268446678e-01,6.664331762356934252e-02,9.071852929578094749e-02,1.023553368080578896e-01,6.465049522736660004e-02,2.485206958540017719e-02,-1.537010805801441310e-02,-1.673598201643979322e-01,-1.610372271282125844e-01,-1.276421373220548439e-01,9.450489295698411008e-02,1.014970633453672888e-01,9.017118960846684517e-02,1.652705900260779570e+00,7.584998260635042122e+00,1.808458102479607987e+01
-1.278299500195849925e+00,-1.278591207826153653e+00,-1.259287539521340094e+00,1.805611295170055641e-01,1.792440033973231595e-01,1.775976793827687972e-01,8.039164627110664818e-02,2.261779133008430878e-02,-4.268984096761111596e-02,-9.369267091875189968e-02,-3.434242702001101023e-03,5.092468293820604647e-02,7.235655484060901643e-02,4.519995695764410931e-02,4.653251837024911797e-02,3.128324710602580633e-02,3.854847366945949455e-02,4.731409100946092766e-02,3.550398593262418107e-02,2.602565920867309576e-02,1.070208633631379363e-03,-1.237369764836538794e-01,-1.341693882543092686e-01,-1.310229404891153360e-01,6.831806722631780793e-02,7.816043305614489567e-02,8.125206654403893669e-02,6.180995422340731377e-02,4.285102360036206065e-02,2.492204900090740083e-02,2.185997673985234230e-02,2.273471632174796017e-02,3.312869280189786186e-02,-1.411501581330406041e-01,-1.002030791095550877e-01,-7.307560267010740351e-02,6.110715802154953469e-02,3.894166018698488885e-02,2.424967918751172805e-02,5.417454296691569943e-02,6.212814554439227699e-02,6.618186310838283792e-02,-2.164485984659831469e-02,-2.896991167604853756e-02,-3.764664382173574936e-02,-8.613110112290529516e-03,-1.088634469541897680e-02,-9.297986236275986027e-03,2.438721085870124039e+00,1.111858085471267366e+01,2.650983541200630356e+01
-1.213655448663712999e+00,-1.175309853373555535e+00,-1.127676097444800796e+00,1.994187784558350829e-01,1.459849991173109707e-01,9.705023427248286871e-02,3.951588530866943089e-02,3.447717512624132175e-02,2.329084461713915727e-02,-1.468300261950278851e-01,-9.719699803215697820e-02,-5.520779474206418541e-02,1.632179620605260506e-01,1.020137603364219409e-01,4.668460784391018081e-02,-1.312484085032579462e-01,-9.986526569677620091e-02,-7.137095037633614525e-02,1.006181568618277483e-01,4.048707400181952853e-02,-3.009039817015123769e-03,-9.260899859899682229e-02,-1.587770888611645531e-02,3.037369446839799370e-02,-6.265598596509175215e-03,3.149587232906952104e-03,1.296874303894988111e-02,3.912511974179449376e-02,-1.081632030045958509e-02,-3.408318350015162451e-02,6.751164058297304260e-02,7.318830023211603253e-02,6.027554501151156929e-02,-9.978522564311424758e-02,-5.718975569399182418e-02,-2.529634043938329760e-02,2.340907432316105888e-02,3.510384800269503863e-02,6.762222439034472343e-02,1.106146750083215891e-01,3.790329408284966173e-02,-2.819482096785766445e-02,-3.876960090039828499e-03,4.927893885162028947e-02,6.686854038146855528e-02,-4.900904037851164935e-02,-6.519621882285044079e-02,-6.018087656226524945e-02,2.457042058518493111e+00,1.153969405845529828e+01,2.732974834890982763e+01
-1.263358503956264478e+00,-1.247955675077313753e+00,-1.213221916032938719e+00,3.155496916693975584e-01,2.535771673292052664e-01,1.815805435431273873e-01,-4.642377086124748614e-02,8.452757354575207716e-03,5.977078280057500359e-02,-1.300563397880399041e-01,-1.114634826287602548e-01,-7.762672723619837289e-02,1.704814931417515111e-01,1.273350005273174990e-01,6.260781617671068444e-02,-4.725963611833426670e-02,-2.388338857363823606e-02,-1.383863285671370390e-04,1.953017817947174870e-02,5.524360936802389863e-03,1.513570983898553666e-04,-1.056735198618216631e-01,-9.024918992546984708e-02,-9.343181491605841160e-02,1.155628791475949158e-01,9.364520787552034486e-02,8.184596465784979569e-02,-1.068764782324796263e-02,1.714245240284675495e-02,2.756338611543861228e-02,2.044781698117895466e-02,-1.347255166531174421e-02,-2.204937550650256858e-02,-8.937910876556982853e-02,-5.955037892562806828e-02,-3.240121510648886344e-02,6.505804384188970148e-03,-1.295607912685360977e-02,-3.827342453377224202e-02,5.834899277359985315e-02,4.559493134423003163e-02,4.854565714230620749e-02,1.875509787268767742e-02,2.940020809060774759e-02,2.127106885681587928e-02,-3.224980005259554805e-02,-2.106920098104538355e-02,-6.137918990965693204e-03,1.632560440676806834e+00,7.617375869518800968e+00,1.767326059548734563e+01
-1.569467476691766228e+00,-1.594847330462609403e+00,-1.597846831066357387e+00,6.253712789502541280e-01,6.696560896074094105e-01,6.919101195956500749e-01,-1.254476263383629830e-01,-1.227086100788223472e-01,-1.171826277072186562e-01,-2.656513736487749883e-02,-5.708636272586804783e-02,-9.297502985014736987e-02,2.339713484893705675e-01,2.196945955683387852e-01,2.005164044052522854e-01,-1.277418279759336417e-01,-9.637722494430146780e-02,-7.647142221571590071e-02,-1.644204957186364696e-03,-8.865161508144191529e-03,1.340021097763874000e-02,-1.071332923003878723e-01,-1.270129972784463379e-01,-1.406897104075941762e-01,1.476003351886236992e-01,1.510198527477090713e-01,1.415095542366456294e-01,-7.176554307787247344e-02,-4.219437654698072332e-02,-2.393874166714375293e-02,1.143614502215611478e-01,7.024216657059392799e-02,2.732024927911388262e-02,-1.440331174141660786e-01,-7.713121152170530903e-02,-1.128574246143988768e-02,-6.469060594087712446e-02,-8.678114213987339620e-02,-9.725153970969281636e-02,1.154817659899265714e-01,6.269491852198599835e-02,2.428869919326309690e-02,-6.285720560331625739e-02,-1.192141846266334126e-02,1.567639440417160912e-02,6.486898359786417989e-02,5.186556818113186029e-02,4.320302301802540074e-02,1.744374336782012147e+00,8.102767961954995712e+00,1.891752470993017354e+01
-1.399004838444906973e+00,-1.398487720163386738e+00,-1.374389616523861823e+00,4.263495701852682007e-01,4.125979022499310367e-01,3.725754747975572045e-01,-5.009950082355767165e-02,-3.384445946329889265e-02,-4.446971862106186002e-03,9.502455087314804622e-03,-2.757473900493170871e-02,-7.103887288401762590e-02,4.965847456866541443e-02,8.679758375821899907e-02,1.019165135665085486e-01,-7.443547877564056503e-02,-6.772992860241813795e-02,-3.945065332893983590e-02,4.838915186925559636e-02,3.754287928167208965e-02,1.050455441870628767e-02,-5.887228593895112855e-02,-7.085333523688529256e-02,-4.600161326384623328e-02,8.461698278671792028e-02,1.093588707366398016e-01,9.052500158880920356e-02,-1.599093321464499506e-01,-1.561095240376021154e-01,-1.165061480753552675e-01,1.874865546424445695e-01,1.762529763897082713e-01,1.535435084263031269e-01,-7.285180051302278526e-02,-9.907910285792660698e-02,-1.379985117876308953e-01,-3.549277626181610024e-03,-6.132582163122225934e-03,1.689344765429989965e-03,2.345405431076970360e-02,5.960043839684763672e-02,8.636033038792051419e-02,-1.269832048817003400e-01,-1.367695828636888988e-01,-1.260804819568219493e-01,1.164292545704393306e-01,1.145719324475917011e-01,9.890700613899172655e-02,1.689768409907366653e+00,7.851187408148904368e+00,1.808632611438093107e+01
-1.043985490066556610e+00,-9.835848496225914062e-01,-9.305224773431649554e-01,3.144382522877627040e-02,-2.364980349086830830e-02,-5.553204744374703322e-02,8.746108945001476731e-02,1.081148510781850813e-01,1.071187956014318238e-01,-1.481760555539508306e-01,-1.880713570114868338e-01,-2.013734760771490606e-01,1.171850610537906595e-01,9.707068335260739256e-02,6.139996405862047091e-02,-4.478679390567595620e-02,-4.323923805383300678e-02,-4.725758033199934510e-02,-4.408223376667261967e-02,6.894645502393483179e-03,4.279031280141610410e-02,-2.966292218357887561e-02,-3.446878133158100266e-02,-3.259146456008121806e-02,2.531124137703705951e-02,3.585524033151872830e-04,-1.430535426593483421e-02,2.524052945816597157e-02,4.432273667575521020e-02,5.606696381806496737e-02,1.015800643392497475e-02,3.282277688458698148e-03,3.462412571491824565e-03,-3.068734920173358388e-02,-9.512264520389161759e-03,2.212658021096032199e-03,-1.246039727675792713e-02,-2.309943647629722138e-02,-3.372945698071964926e-02,5.175490155195640318e-02,1.851973448011073192e-02,1.537754785809585922e-03,-9.556654597172680593e-03,4.146457996470773177e-03,2.006453568815899993e-02,1.497448499072375969e-02,2.302448897821391186e-02,2.074479907813469790e-02,3.084316510274383472e+00,1.409906887819065169e+01,3.345759253677922374e+01
-1.331524665567899168e+00,-1.319009078582340733e+00,-1.236120683427119005e+00,2.600996519783652650e-01,2.663959636934256636e-01,1.726495528075442931e-01,8.271079852567433943e-02,7.791378769425620632e-02,9.766935695043235666e-02,-1.079787041282304350e-01,-1.273806583173879847e-01,-1.149084216144803522e-01,1.531799792582238806e-01,1.383082209186937694e-01,6.031511384388313357e-02,-3.773079397805278231e-03,-4.124709443917498955e-03,8.320247480668203910e-02,9.539337125399287298e-02,1.092963644445882759e-01,2.549756451772190041e-02,-4.257059358320496312e-01,-3.917029937873344747e-01,-2.856464475073210441e-01,2.448043320433680448e-01,2.130748217298620018e-01,1.373267033295876571e-01,1.195485397815933132e-01,1.259699712258708082e-01,1.401348721473908154e-01,-8.103883886790774760e-02,-1.133348415308537971e-01,-1.117332916288718558e-01,-1.118301781525790628e-01,-1.101461421517480888e-01,-1.217173054025103424e-01,1.326439801281843051e-02,6.239925106914443603e-02,1.100756999299274813e-01,1.803627377822827060e-01,1.517936281594946812e-01,8.412056732796030500e-02,-1.046929350927037761e-01,-8.619710638032429539e-02,-2.969060468038120515e-02,1.729532331902091519e-02,6.841035027763615710e-03,-1.109868335496156690e-02,1.922887559994777451e+00,8.732854271036872618e+00,2.060708315595899265e+01
-1.635041356022713499e+00,-1.613923427461827043e+00,-1.567071942233722925e+00,6.485384955123697504e-01,6.043844871604615587e-01,5.346738408696134481e-01,-3.906578602471252187e-02,-3.872728946148282225e-02,-4.039295141141714673e-02,-1.068299395077846325e-01,-5.705769876819540010e-02,-3.415710708490212865e-03,2.283879055420152404e-01,1.895912119637584992e-01,1.433050238534834819e-01,-1.671548765435654504e-01,-1.463945668993718863e-01,-1.220104430143339608e-01,1.996990632295703727e-01,1.736502948090862808e-01,1.384485285390125719e-01,-3.102125664395343763e-01,-2.965542443387416682e-01,-2.627501498880049358e-01,8.672736549804463402e-02,1.143770319414456477e-01,1.403512504624130075e-01,1.940615326533348117e-01,1.441895510540059100e-01,7.753580509743744631e-02,-1.162449582350610494e-01,-6.876492485483126638e-02,-1.096171627010284616e-02,-2.925335614043359650e-02,-3.849735127708419496e-02,-5.458271157361065107e-02,4.321694634362691773e-02,3.842839828859218911e-03,-2.288039829923331839e-02,4.725406257395540349e-02,7.591188463329619218e-02,9.628291774538391690e-02,-4.511026693899939516e-02,-3.457311711648154706e-02,-2.584986528232513514e-02,1.496294198146475149e-03,-1.109740179621973924e-02,-2.041844959898976922e-02,1.987856036351361988e+00,9.020061551256945975e+00,2.054388770466913172e+01
-1.632174147899614125e+00,-1.604542718426834158e+00,-1.560654988235518958e+00,7.034873031755973782e-01,6.687036119818440261e-01,6.185223189446236169e-01,-1.373047629702613404e-01,-1.547204188072301145e-01,-1.768599907045275144e-01,7.890833060207793487e-03,3.387179703233839795e-02,6.947949542104750464e-02,7.311444290228741316e-02,7.310465525981395263e-02,5.858264366457504452e-02,1.085882216174011670e-03,1.916360021088339347e-02,5.238012674959775794e-02,2.130907506522787542e-02,-2.315804532004228991e-02,-8.111738284741271121e-02,-7.081680563007171358e-02,-4.047120065968081576e-02,2.209546021626804246e-03,8.921867084412428428e-02,9.380144736341912426e-02,8.719465160977021845e-02,-1.286370356864313946e-01,-1.753392558001969359e-01,-2.059609973822187634e-01,-1.725848397828094044e-02,5.196854031000695123e-02,1.146639852782110058e-01,2.902164243425554846e-02,-8.307646341400949305e-03,-5.398902091121063340e-02,1.638278614007860068e-01,1.622042945043969397e-01,1.626415906890715246e-01,-2.483877051228036009e-02,-3.769861193089611706e-02,-5.674964763320428790e-02,-1.019040116981446281e-01,-5.991063901820241344e-02,-2.976648824029724805e-03,2.432533719860383373e-02,1.639579619959007474e-03,-2.711707281805896333e-02,3.143716676380861497e+00,1.363174932342404233e+01,3.020892417048450795e+01
-1.287964920239828226e+00,-1.301089102189901370e+00,-1.322493179289150111e+00,2.422803530795532290e-01,2.479572663249386688e-01,2.796530515269814998e-01,6.629917117677569527e-02,7.823734602053071530e-02,8.116107398796451600e-02,-1.179071071670784177e-01,-1.393851037122681435e-01,-1.688858363423249020e-01,8.666581749184464056e-02,1.035021428428181400e-01,1.343965857910792427e-01,-1.387492386304540679e-02,2.018157801001968336e-03,-2.314461123542872409e-03,9.469269575382975590e-02,8.814330078093915444e-02,8.129901898902497370e-02,-1.928363081903707033e-01,-2.220624494065032151e-01,-2.561014227936316834e-01,1.471356719732388185e-01,1.620145723130103632e-01,1.874113668103266073e-01,4.584707319140867571e-02,5.193837072416066653e-02,3.972126728069825391e-02,-1.055694314401280504e-01,-1.017475216103820579e-01,-7.412772741267259491e-02,-1.059796868849540996e-01,-1.262137387424956680e-01,-1.243513034007621559e-01,2.742854496040756165e-02,5.975125095003828990e-02,6.956725179498984835e-02,1.318845359072325640e-01,1.131504167138266265e-01,9.960145590364677393e-02,-2.006099014374321254e-02,-2.569405883351157105e-02,-4.656821675818804268e-02,2.134596248829652518e-03,9.615857443137641389e-03,2.212864880877749019e-02,1.516818447420023919e+00,7.002002609904700137e+00,1.640936074644064036e+01
-1.006624704501865031e+00,-9.657880270588702354e-01,-9.284360169883801861e-01,-8.288990996489704888e-02,-9.401910700985351144e-02,-9.174589160825566414e-02,8.579705192188367621e-03,1.071465758844004391e-02,2.054456839694861897e-02,1.284831333557969191e-01,8.277389303983584412e-02,2.979746670375017087e-02,-6.188753698343894133e-02,-5.742151423985349806e-02,-5.809728363808513291e-02,-3.690687807393739500e-02,-3.315519596459139823e-02,-2.393563548425006737e-02,-1.571902359453844836e-02,8.576499022158476024e-03,2.281160025362772084e-02,4.462127202789260144e-02,1.174159863333575603e-02,-2.051371228783230305e-02,-1.203659758151366492e-02,1.784651483283684198e-02,4.997268586243372446e-02,-1.444319273634712790e-02,-4.046780052159518193e-02,-5.909677022588859241e-02,1.282719548782248198e-01,1.193052036849527875e-01,9.881121530185102420e-02,-5.389658091181236815e-02,-3.918061238561334342e-02,-2.827573390422905356e-02,-6.083844024786350807e-02,-5.287853606020084807e-02,-3.694291636360350767e-02,8.232923686955492815e-02,9.623285607121102869e-02,1.046503853860185490e-01,-1.505412230013516983e-02,-1.897477511935703048e-02,-1.652258991578650638e-02,-3.183085430860791570e-02,-4.518260093168324082e-02,-6.293502832468254871e-02,2.717280982804116896e+00,1.243355268692066851e+01,2.971797375770531247e+01
-9.898883624032086548e-01,-9.599105619384779020e-01,-9.334597267609919813e-01,-4.604354255824304881e-02,-4.012168773928864035e-02,-1.647884374280709011e-02,6.957203535571945818e-02,5.780701593513822012e-02,3.790869589509309606e-02,-1.390525794897571332e-01,-1.417237511990953325e-01,-1.277034406311342296e-01,8.940922571210786762e-02,5.785174687579393987e-02,1.661537141153496266e-02,1.825493958432079225e-03,-5.736345098394179422e-03,-1.377343741593634735e-02,2.167661961236449358e-02,1.391169580611266963e-02,3.286372068383528085e-03,-1.123871589730730397e-01,-7.580667725794466849e-02,-4.559346950467475096e-02,1.061279295999390665e-01,6.163804248584719286e-02,2.081111136995920236e-02,1.865410242107669661e-02,3.527591172173542844e-02,4.344623413081338120e-02,2.055079093979136559e-02,-1.040768938888211002e-02,-2.802159887254932619e-02,-1.058872117821877540e-01,-7.280518095057669781e-02,-4.848298242319005330e-02,6.393593685905540891e-02,7.421300715673739834e-02,8.481548968936888921e-02,7.301271349344148898e-02,4.931289686716435611e-02,2.860248036814183603e-02,-7.833298880966418909e-02,-5.135493987170880459e-02,-3.824769201467527469e-02,6.891448017248824436e-03,7.917568309241580088e-03,1.632989082884806278e-02,2.320341769800634335e+00,1.103902632575982956e+01,2.648136919301981962e+01
-1.044585700821259566e+00,-1.027102735773843367e+00,-1.015227973256242588e+00,1.647967904896634195e-02,-1.054549895556372574e-02,-1.314120224563250679e-02,1.244068336678577913e-01,1.354368523950716663e-01,1.211101247204407899e-01,-2.782298969020517432e-01,-2.360226510175042203e-01,-1.824108502861649106e-01,1.800522848779634866e-01,1.434484002984205142e-01,1.114937755796912011e-01,-8.671872438716490827e-02,-8.224968299611538913e-02,-8.835625966090382422e-02,1.022046983653517455e-01,4.332723014624263042e-02,1.155222681898309192e-02,-1.366801692369497834e-01,-6.926463711893798836e-02,-3.361171613760680771e-02,3.543809540414202732e-03,-1.145415846379949955e-02,-9.944790352643024384e-03,1.365170232051525767e-01,1.361975737049325175e-01,1.279323411411531219e-01,8.777561447664840658e-03,-1.461045737095717847e-02,-5.024612964824803907e-02,-6.261604199357097278e-02,-3.712244555140446073e-02,1.401206794800562497e-03,6.347657522690837439e-02,5.842743610895646117e-02,3.175696260491921163e-02,7.050717537844898575e-02,4.710674995066168463e-02,5.601270690297585619e-02,-7.545382011998788552e-02,-4.813415314113266008e-02,-3.854327721299199982e-02,-2.159130617023295728e-02,-2.735529897676634153e-02,-2.971002700892259180e-02,2.603731934887250077e+00,1.202320637286391047e+01,2.959954625084283464e+01
-1.304648261092686834e+00,-1.261486466712070431e+00,-1.169985685795080776e+00,2.581099610348349116e-01,1.682403946967676589e-01,4.418885588793314279e-02,1.878860801206709563e-02,1.042586685521389445e-01,1.496634128491907412e-01,-3.833201554269802247e-02,-1.099133518727726661e-01,-1.309667986790571670e-01,1.171709043791037130e-01,1.748047502216025506e-01,1.753200379089346894e-01,-5.837919790223410760e-02,-1.356441586235403451e-01,-1.296083275767442589e-01,7.976160776316824907e-02,8.037623345328093194e-02,2.503186185733077482e-02,-2.036195922942931613e-01,-6.445418140894709769e-02,4.488310780817109796e-02,1.994023163325640557e-01,3.033164453697658261e-02,-7.223186804731954180e-02,-1.273803957016491906e-01,1.683490311960497698e-02,9.953169243030239588e-02,1.170741394296022503e-01,4.767484249018578979e-02,1.240015842833444570e-02,-1.230593072862263687e-01,-1.681001484331807738e-01,-1.909705312660211485e-01,3.495640128115806711e-02,1.002183636339308292e-01,1.397676627436607866e-01,1.022802035532690279e-01,6.082601274381817247e-02,1.985838291672174100e-02,-1.155748779788937225e-01,-6.922915849228863938e-02,-3.747178645111800405e-02,4.355897528836907145e-02,2.536547363111111078e-02,2.068677176680054630e-02,1.589031806777084999e+00,7.401121813984516074e+00,1.748989634009605254e+01
-1.043985490066556610e+00,-9.835848496225914062e-01,-9.305224773431649554e-01,3.144382522877627040e-02,-2.364980349086830830e-02,-5.553204744374703322e-02,8.746108945001476731e-02,1.081148510781850813e-01,1.071187956014318238e-01,-1.481760555539508306e-01,-1.880713570114868338e-01,-2.013734760771490606e-01,1.171850610537906595e-01,9.707068335260739256e-02,6.139996405862047091e-02,-4.478679390567595620e-02,-4.323923805383300678e-02,-4.725758033199934510e-02,-4.408223376667261967e-02,6.894645502393483179e-03,4.279031280141610410e-02,-2.966292218357887561e-02,-3.446878133158100266e-02,-3.259146456008121806e-02,2.531124137703705951e-02,3.585524033151872830e-04,-1.430535426593483421e-02,2.524052945816597157e-02,4.432273667575521020e-02,5.606696381806496737e-02,1.015800643392497475e-02,3.282277688458698148e-03,3.462412571491824565e-03,-3.068734920173358388e-02,-9.512264520389161759e-03,2.212658021096032199e-03,-1.246039727675792713e-02,-2.309943647629722138e-02,-3.372945698071964926e-02,5.175490155195640318e-02,1.851973448011073192e-02,1.537754785809585922e-03,-9.556654597172680593e-03,4.146457996470773177e-03,2.006453568815899993e-02,1.497448499072375969e-02,2.302448897821391186e-02,2.074479907813469790e-02,3.084316510274383472e+00,1.409906887819065169e+01,3.345759253677922374e+01
-1.131928012449227694e+00,-1.158371957687046372e+00,-1.164403409094864950e+00,-4.501161819218688076e-02,8.847479476012322375e-02,1.858499158473033430e-01,1.263176759067106969e-01,3.290541517396659843e-02,-3.609686903164974897e-02,-2.618997412914914058e-02,-5.488429888435140958e-02,-8.205341183349017242e-02,9.691311196083288171e-02,1.109087028611393660e-01,1.238451731952194546e-01,-1.262172451193147860e-01,-1.309801802093952527e-01,-1.402098383905376611e-01,6.702532510555465721e-03,6.917661933823813711e-03,1.599206457682707597e-02,1.701901958345503896e-01,1.741185942522288088e-01,1.393083479175235284e-01,-8.437550553241726647e-02,-9.776970268514355300e-02,-8.797044262768823064e-02,6.037584056700470714e-02,9.771618500862548629e-02,1.312239570240947839e-01,1.328510745619814783e-02,-6.561458784224229179e-02,-1.199721765766689763e-01,-1.561664602859123563e-01,-1.123167923069644802e-01,-6.950471821182922783e-02,-6.765216337329292562e-02,1.127590604921641787e-02,3.941023682239021275e-02,1.336429059823754650e-01,4.533929869266691698e-02,-2.515831057937114798e-03,2.549922121446722770e-02,2.498665729802870134e-02,2.228988575719061116e-02,5.075787668163437780e-03,2.768466271975618051e-02,4.510231400204345320e-02,2.962695933505357093e+00,1.335474141066397102e+01,3.066753985252294257e+01
-1.527526117255852300e+00,-1.536094445009965392e+00,-1.528032060209453480e+00,5.449128801768070574e-01,5.267370596941098881e-01,4.912100230595439210e-01,-6.046173396953059831e-02,-2.374512089876177484e-02,2.322811391424605548e-02,-4.853598111021396877e-02,-4.974465292505228509e-02,-6.640879793376262830e-02,1.140870409491914345e-01,1.028257665834775569e-01,1.018327664236172991e-01,-4.697194658549980889e-02,-6.714817005182856235e-02,-9.071958606853124107e-02,4.874362456527592258e-02,8.909030914095167342e-02,1.256536479534308970e-01,-1.654291308550030065e-02,-4.169214138348772275e-02,-7.509538003818735930e-02,4.223524470887754512e-02,5.218854009961310797e-02,7.476603594863032165e-02,-1.030809474896070554e-01,-1.053571935736508924e-01,-9.669339490148211314e-02,9.307015741804268438e-02,8.295268121435335484e-02,5.256177697964502238e-02,-7.678539298949754732e-02,-5.567900587006554408e-02,-2.456932190552944817e-02,3.296039778303934409e-02,7.024448104037139123e-03,-2.133156452405159803e-02,-8.536631320600930606e-04,1.983473935439381344e-02,4.917950884803251599e-02,3.499829148576886345e-02,3.171968802420330191e-02,1.013474611762755356e-02,-3.003921859015455664e-02,-3.274558903407880084e-02,-2.559280353494834681e-02,1.727233220206384701e+00,7.722210190295029975e+00,1.749021449344561674e+01
-1.471123098285429975e+00,-1.492148992195471147e+00,-1.503965214173849985e+00,5.855390683707224486e-01,5.990423931138796343e-01,5.945309514709170573e-01,-1.524546241045967587e-01,-1.240620581765584374e-01,-8.059847574995433750e-02,-5.611604167335997040e-02,-1.014262515479096294e-01,-1.436578266402386561e-01,5.109760243999898061e-02,7.846296263583087127e-02,1.083002044632689898e-01,1.149783964308870865e-01,1.195153152560534254e-01,1.035776378663153530e-01,-4.406573234285597607e-02,-5.222266232548218590e-02,-5.280652675453955530e-02,-1.311290844184545279e-01,-1.180645097099401325e-01,-1.090895711028620624e-01,1.062727799064526052e-01,9.354889029069025919e-02,7.794788624009556244e-02,3.660194881077491469e-02,3.873532841785887193e-02,4.393959441799949461e-02,-1.290328328838030725e-01,-1.303644198950629496e-01,-1.145075904650244697e-01,7.799573811062257556e-02,6.381931022705580880e-02,3.960318965477777065e-02,-3.639496508899040840e-03,1.596449871114827626e-02,3.634774038928083317e-02,-1.303650940520076351e-02,-2.574058590795426371e-02,-3.140092349368417413e-02,-1.395784097967742859e-02,-1.245908266587635038e-02,-1.978715340394020250e-02,4.230275465354237791e-02,4.759735689585829072e-02,5.171375974112391721e-02,1.943659713416342916e+00,8.569729003278068191e+00,1.915216723999665405e+01
