-1.651719132239487520e+00,-1.599033887087292216e+00,-1.401320923483165171e+00,7.490140390129256254e-01,6.670661592725866118e-01,4.322535279534834851e-01,-1.531281379014022004e-01,-1.594051589653100176e-01,-1.959328297584547740e-01,-5.416105774786453796e-03,3.881236521613671414e-02,1.407641362920951378e-01,7.888665534316366412e-02,7.530075698607431589e-02,2.291754246604717563e-02,-9.091617254983473326e-03,1.928909797930386874e-02,1.028193461116947566e-01,1.141635616433811853e-02,-6.545647876487846462e-02,-2.117226774991492477e-01,-4.758432618237379286e-02,-9.555853415923738596e-04,1.039272781725959216e-01,2.458567778016804845e-02,1.986489603192962555e-02,5.680920647079529609e-03,3.392614359423360391e-03,4.820833291783121165e-03,7.760544016904329578e-04
-1.695850885506700267e+00,-1.686049788317276699e+00,-1.451742203413377563e+00,8.132410618599391627e-01,7.708672118603758783e-01,4.376769684874976529e-01,-1.723986298163964759e-01,-1.502935381179937302e-01,-6.157504156922837674e-02,-1.220071821596705186e-01,-9.717801210908416643e-02,-1.763556874847893585e-02,3.292334057894313326e-01,2.840902218008838909e-01,7.964267981337232183e-02,-7.712455214782654167e-02,-5.183421987517532713e-03,5.505581235088952835e-02,-6.481336127313967743e-02,-1.400822663746245089e-01,-2.970748748500299727e-02,-2.013719855902188494e-01,-1.524335149851994975e-01,-9.421065304866717283e-02,2.362632445679201387e-01,2.231342080057275856e-01,8.557747442990544517e-02,-4.485096739965213630e-02,-4.661606388506039922e-02,-2.900110878489725857e-03
-1.504146870666378311e+00,-1.526824816432813314e+00,-1.378136463103588172e+00,5.956260755877733626e-01,6.103207670343550051e-01,3.421925034590233561e-01,-1.156664887410814024e-01,-9.612983027408565639e-02,9.752580966058593814e-02,-9.298652393692723173e-02,-1.073651529331628995e-01,-1.546704495569311000e-01,1.256452080733723442e-01,1.519621114615457014e-01,1.185631742655682969e-01,-1.416967720176135620e-02,-4.610930907694643643e-02,-3.827420957455213157e-02,6.138621068191987135e-03,4.261447429382010654e-02,4.493052571841493065e-02,-1.760774165083859866e-01,-1.927495997644899650e-01,-1.315058887445079150e-01,1.994870027166335269e-01,1.912762953492523066e-01,6.118286566925095621e-02,-2.358848197262886776e-02,-2.681845452061445284e-02,3.829408437454617786e-02
-1.408318898735957836e+00,-1.384181437583832386e+00,-1.261782447770399829e+00,3.944705243535418515e-01,3.615107561807054948e-01,2.632330817779506837e-01,-5.396040445720119011e-02,-5.604951373616304244e-02,-2.543479441958962362e-02,5.651238286579084863e-02,3.495164379742608102e-02,-9.820211050756712245e-02,-3.800716941938882959e-02,-1.233792501187731469e-02,8.116045098815213854e-02,9.313795924615299315e-02,1.018779384200183130e-01,3.501685257590667760e-02,-3.527306730900824083e-02,-2.738710241705463039e-02,-2.323042856064137102e-02,-1.158167416551605378e-01,-1.688978424464618044e-01,-1.376804096152159929e-01,1.600374927755857379e-01,2.045130445767537886e-01,1.143451412454486449e-01,-5.254407030748831781e-02,-5.383448074256043381e-02,5.267776565970504199e-02
-1.277188235031766039e+00,-1.273490125589433308e+00,-1.201323017199912746e+00,1.906127948255877391e-01,1.846987023775969738e-01,1.808624172092897497e-01,6.840277412391908285e-02,-1.714287574729372182e-02,-1.301876553467148923e-01,-1.051740401486863374e-01,2.989692860994029242e-02,5.685358403565694829e-02,8.748947259034800528e-02,4.597370471536025432e-02,6.279625604170553654e-02,3.793408190784056805e-02,4.811885930569527459e-02,7.345850298265575729e-02,2.743128004581626284e-02,1.364056319579681764e-02,-3.758420378840799519e-02,-1.323335809840542054e-01,-1.410507724517466588e-01,-1.176206715999427166e-01,8.732883862187509894e-02,8.297036350112280134e-02,6.675796868994456068e-02,1.573000026907292112e-02,2.658220790399458064e-02,4.610718251148457347e-02
-1.153698339856244592e+00,-1.110409329222646457e+00,-1.025755799962174031e+00,3.697078529671109920e-02,-9.686786771343264182e-04,-5.574060759297733841e-02,1.145983259154486761e-01,8.615473769782942826e-02,4.753291703064464746e-02,-1.492070517799902740e-01,-1.106471768140779993e-01,-6.440828604963814985e-02,1.895580081616294321e-01,2.003411154501444913e-01,1.852764820967521542e-01,9.633562042806885495e-02,4.633435593418466086e-02,-3.906842719517664153e-02,-1.298095708694134709e-01,-7.474401134863981055e-02,3.049916222535396099e-03,-1.205552646788687621e-01,-1.655731275503874445e-01,-1.865355929967918158e-01,1.378151412598654091e-01,1.344108405957005481e-01,9.704835480338994125e-02,-2.178210161440658280e-02,-4.721799067692412054e-03,3.873079444359123907e-02
-1.103321512904001267e+00,-1.097014420806343926e+00,-1.021793625326032684e+00,1.032566511511432972e-01,1.048165297269779833e-01,8.980146797891597199e-02,3.627174073524196130e-02,4.328041566393690115e-02,-4.727007869290134751e-03,-7.341798916671211928e-02,-9.759957359744442229e-02,-5.417477850664199901e-02,3.160338835421270393e-02,4.588021495113298737e-02,1.208011574643196896e-02,3.241464471907325867e-02,1.849148855328403354e-02,-6.960420214599808558e-03,-6.633457826857934447e-02,-5.832469474555748712e-02,-9.027154547640837967e-03,6.612626478502578453e-02,4.500839770302971637e-02,-3.972345598038375808e-02,-5.059826052394927887e-02,-4.396128385704493879e-02,-5.323866891700897164e-03,2.420002198126061654e-02,3.959998000901107651e-02,3.996521881332885245e-02
-1.220742400488824098e+00,-1.254174689155406197e+00,-1.225057145713348117e+00,1.880177023556848792e-01,3.008397755835310328e-01,3.349102500999353582e-01,1.894767251382383777e-01,9.305396340433261249e-02,2.547443843401146074e-02,-3.600340885955825021e-01,-3.815284430520289871e-01,-2.850737834517359515e-01,2.885715102991958103e-01,3.664068241407238968e-01,1.931478997059614677e-01,-1.020621673300814783e-02,-6.253437745393707059e-02,9.672798602571494597e-02,-1.114080034063439778e-01,-1.145989039055581304e-01,-1.869775152935411744e-01,1.433004966218617560e-01,1.798512924969102589e-01,1.063448242123154891e-01,-2.171779081682893853e-01,-2.728406290786185018e-01,-1.650291421872269459e-01,1.104301021475672939e-01,1.457287716887570861e-01,1.056381176594924365e-01
-1.078213965344875680e+00,-1.059023320220932485e+00,-1.003477798920553443e+00,5.939284988776231955e-02,1.388546216610385582e-02,-3.295782133762412830e-02,2.535790474733417080e-02,-9.805605331727664659e-04,-2.801621551441358521e-02,-6.753586755122140128e-02,6.495220257860105130e-03,7.884147387677031826e-02,3.108673850755395290e-02,4.682166572083690075e-03,-2.734222435149547686e-02,5.645901171239051108e-02,4.597929646621325833e-02,-1.396645660520224111e-02,7.404553561246883520e-02,8.395457925411772826e-02,7.234140047672384111e-02,-1.946908626730398106e-01,-1.610745809328780198e-01,-8.419019207148688289e-02,5.971681507058818755e-02,7.193823579683338021e-02,3.981310304877547224e-02,3.447672744929456551e-02,-5.776578004350684838e-03,-9.887196801841868516e-04
-1.200348295650857100e+00,-1.143944200668997713e+00,-1.027170085410529898e+00,1.950530903527366300e-01,1.258351494005822135e-01,5.569122408352789044e-02,4.973638143552085167e-02,3.507672011989081823e-02,-4.364296923889492835e-02,-9.317352965591658986e-02,-3.774267636489381933e-02,4.328022050328031618e-03,6.971890006839352727e-02,2.676731386091188436e-02,4.530308901038605091e-03,1.265354649446599235e-02,2.765225156178768330e-03,-1.975493335581529272e-02,-2.658781377894424078e-02,9.806744515934507841e-03,4.035079386714875843e-02,-9.454045902372218424e-02,-7.436909391691237659e-02,-6.780731131274492229e-02,8.719922707510394111e-02,3.742444793526290836e-02,1.699679863192377766e-02,3.812767264015171705e-04,1.844746286971899255e-02,3.652637584042409125e-02
-1.049405893574534065e+00,-9.578005265139397650e-01,-8.625268671106223195e-01,3.137334690156851763e-02,-4.508379008623421974e-02,-7.676650707349438885e-02,8.643207930208329781e-02,1.133861234044614419e-01,9.643613820787612367e-02,-1.496434391998210656e-01,-2.017286694696065197e-01,-1.886457722438976414e-01,1.189357704286155559e-01,7.829114269510889512e-02,-1.209181030095022626e-02,-4.376534885411562104e-02,-4.360459813131620233e-02,-6.060147813348103207e-02,-3.883330302568285819e-02,3.235837661917574659e-02,7.596454252499310056e-02,-3.104699005727310293e-02,-3.238885890618301011e-02,-2.782470978852143173e-02,2.439363755946206275e-02,-1.089718427576587961e-02,-3.267444341530830604e-02,5.167186418101902406e-02,6.755783828609661368e-02,8.879441300422763472e-02
-1.280320605639332143e+00,-1.226883011655835354e+00,-1.104273807270309993e+00,3.248316234854206064e-01,2.190333369916264428e-01,4.146169145501746311e-02,-4.138265528368679363e-02,1.226356477511458820e-02,6.452966333139023569e-02,-1.625947327516953991e-02,-2.142292898084655409e-02,-1.229974335935488799e-02,5.505797113260963577e-02,4.347919332428767242e-02,5.575660094266274118e-03,-1.450605985295074229e-01,-1.365044720795389743e-01,-7.896256555697402091e-02,9.858712087061477503e-02,7.482486984223629678e-02,3.154356927044127401e-02,-9.816971880007266393e-02,-5.264521357554780706e-02,-3.257478006444915891e-02,1.316996620430534448e-01,9.984070990527618705e-02,9.036359611388734836e-02,-2.885886853989683143e-02,-1.188328924350532355e-02,-5.302261571270340881e-03
-1.172155333263254828e+00,-1.099348141380384059e+00,-9.519530803767174421e-01,1.607079788102158124e-01,6.551814922981957778e-02,-2.844590623032018650e-02,4.200084781368104009e-02,4.631976107335506604e-02,8.384021205504891064e-03,-1.294867685420887093e-01,-9.701600995300518893e-02,-8.537846860523286285e-02,1.224027566499042569e-01,1.091923716196265409e-01,7.676082995752868399e-02,1.069912251824194430e-02,-2.508727706829740056e-02,-8.665968386069457241e-02,3.459665894553821952e-02,4.743789108048852843e-02,1.532299921051217574e-02,-1.883534461134672711e-01,-1.822253920522161064e-01,-5.875855885692567171e-02,1.460791195420724498e-01,1.327671542207060351e-01,1.027713808229670372e-01,-2.640971228467974691e-02,2.511897561855515153e-03,8.018193124439949512e-03
-1.155081663658458657e+00,-1.074308009516287798e+00,-9.231358397977957875e-01,1.148762726928138078e-01,5.944620399189445847e-02,6.909785663705463737e-03,9.460974255589459092e-02,3.090842597804819084e-02,-6.843749703034357479e-02,-7.018978106077179702e-02,-3.005673906184146149e-02,-1.644226222627180600e-02,-1.473635014041608030e-02,-3.012413580605382592e-03,1.161734595249514640e-02,3.634836005414007754e-02,1.662207527599708981e-02,-1.624870369015291027e-02,-5.234604261939936054e-02,-6.396803020269446749e-02,-3.664279962684281744e-02,-6.355349766017963364e-02,-5.419845441150651644e-02,-6.111191250293228350e-02,4.286209532118329113e-02,2.047125183016391958e-02,2.223549873756813788e-02,6.733546768146120298e-02,9.819642157516787762e-02,8.132226127050957987e-02
-1.221891859657353363e+00,-1.159977208822681183e+00,-1.062428950167236597e+00,2.092132313783990893e-01,1.207889755530154458e-01,6.310198483426274207e-02,3.130914412989830448e-02,3.017113237357920905e-02,-1.063941300358161798e-02,-1.547238949367595318e-01,-7.442867163311105150e-02,-2.880924524524171998e-02,1.862335620180764484e-01,7.670495930073890911e-02,-1.160722200559885335e-02,-1.442667523157923903e-01,-8.823687259319633325e-02,-1.209673584968630651e-02,1.103267059088454266e-01,2.060748475790303083e-02,-5.262604887609290127e-02,-1.040736821955419722e-01,1.363429420645597030e-02,4.911000665339032567e-02,-1.213202706477946313e-02,7.911337279786767596e-06,7.146850891877637446e-03,1.001492694290265634e-01,6.085392324664156555e-02,5.894657587891347084e-02
-1.237863391642759270e+00,-1.120968963843725907e+00,-9.540768183610840447e-01,1.926259019807887163e-01,7.897224690054852059e-02,-1.539232650862840113e-02,1.001041473889077854e-01,5.708428914768529788e-02,-2.597869029175924049e-02,-8.157296351808526746e-02,-2.768097327487742398e-02,-1.612951278341594880e-02,9.722393278610880207e-02,8.870779942459483536e-02,4.422581683653280943e-02,-1.525063433776514543e-01,-1.391804081953116612e-01,-7.155626293194872201e-02,5.531382057015984260e-02,1.395864580694471807e-02,4.266919232465441955e-03,-4.660413512188694984e-02,-1.399853363944873579e-02,-2.338355530953126378e-03,6.242155149974844275e-02,2.305418490418423283e-02,4.371139043859887524e-03,1.096480769642787893e-02,4.013185650069890642e-02,3.266385057799532643e-02
-1.335050920110191219e+00,-1.317364066781721466e+00,-1.154259781721651112e+00,3.642221844799476971e-01,3.328900500279697861e-01,1.740004625928505966e-01,-9.431189706106576920e-02,-9.611843773652341272e-02,-8.988194142709411694e-02,-7.512098019294469187e-02,-4.160839087231907318e-02,3.801580391871979547e-02,1.470802614646329332e-01,1.152985494751945228e-01,3.639231901402008307e-02,-2.183810862040006309e-02,3.813745226959574380e-02,3.965496040166587716e-02,9.638114913336760792e-02,5.053949876174212985e-02,2.479764463177790840e-02,-1.821094701475570732e-01,-1.737403787194442828e-01,-1.500668199100574918e-01,1.460485799304007126e-01,1.234339911139962220e-01,1.241909838120282827e-01,-4.516349513646589209e-02,-3.136356095881458889e-02,-4.276590334248642211e-02
-1.058803259459323520e+00,-1.072075226524531466e+00,-1.070075378271525324e+00,5.819294544305121664e-02,1.122538805990299510e-01,1.701893644512018355e-01,2.038117260494259203e-02,-4.207230479781102345e-02,-1.185329760276662148e-01,-1.251958972282413984e-01,-9.950832279691833315e-02,-4.408486479186624063e-02,1.076429007835413981e-01,8.798895372608583898e-02,3.551429970235425726e-02,-3.599628008032496745e-02,-5.835482281310468838e-02,-3.328584299338196301e-02,2.963833951804911368e-02,4.048622489678155995e-02,5.974040896309176091e-02,-1.969443344957277353e-01,-6.766986956836162914e-02,-1.813044786670624242e-02,1.871364671397707791e-01,1.082943220323473454e-01,1.560301054407844251e-02,1.403022617194559646e-02,-9.275937192881325219e-03,3.128128102691736176e-03
-1.651719132239487520e+00,-1.599033887087292216e+00,-1.401320923483165171e+00,7.490140390129256254e-01,6.670661592725866118e-01,4.322535279534834851e-01,-1.531281379014022004e-01,-1.594051589653100176e-01,-1.959328297584547740e-01,-5.416105774786453796e-03,3.881236521613671414e-02,1.407641362920951378e-01,7.888665534316366412e-02,7.530075698607431589e-02,2.291754246604717563e-02,-9.091617254983473326e-03,1.928909797930386874e-02,1.028193461116947566e-01,1.141635616433811853e-02,-6.545647876487846462e-02,-2.117226774991492477e-01,-4.758432618237379286e-02,-9.555853415923738596e-04,1.039272781725959216e-01,2.458567778016804845e-02,1.986489603192962555e-02,5.680920647079529609e-03,3.392614359423360391e-03,4.820833291783121165e-03,7.760544016904329578e-04
-1.695850885506700267e+00,-1.686049788317276699e+00,-1.451742203413377563e+00,8.132410618599391627e-01,7.708672118603758783e-01,4.376769684874976529e-01,-1.723986298163964759e-01,-1.502935381179937302e-01,-6.157504156922837674e-02,-1.220071821596705186e-01,-9.717801210908416643e-02,-1.763556874847893585e-02,3.292334057894313326e-01,2.840902218008838909e-01,7.964267981337232183e-02,-7.712455214782654167e-02,-5.183421987517532713e-03,5.505581235088952835e-02,-6.481336127313967743e-02,-1.400822663746245089e-01,-2.970748748500299727e-02,-2.013719855902188494e-01,-1.524335149851994975e-01,-9.421065304866717283e-02,2.362632445679201387e-01,2.231342080057275856e-01,8.557747442990544517e-02,-4.485096739965213630e-02,-4.661606388506039922e-02,-2.900110878489725857e-03
-1.504146870666378311e+00,-1.526824816432813314e+00,-1.378136463103588172e+00,5.956260755877733626e-01,6.103207670343550051e-01,3.421925034590233561e-01,-1.156664887410814024e-01,-9.612983027408565639e-02,9.752580966058593814e-02,-9.298652393692723173e-02,-1.073651529331628995e-01,-1.546704495569311000e-01,1.256452080733723442e-01,1.519621114615457014e-01,1.185631742655682969e-01,-1.416967720176135620e-02,-4.610930907694643643e-02,-3.827420957455213157e-02,6.138621068191987135e-03,4.261447429382010654e-02,4.493052571841493065e-02,-1.760774165083859866e-01,-1.927495997644899650e-01,-1.315058887445079150e-01,1.994870027166335269e-01,1.912762953492523066e-01,6.118286566925095621e-02,-2.358848197262886776e-02,-2.681845452061445284e-02,3.829408437454617786e-02
-1.408318898735957836e+00,-1.384181437583832386e+00,-1.261782447770399829e+00,3.944705243535418515e-01,3.615107561807054948e-01,2.632330817779506837e-01,-5.396040445720119011e-02,-5.604951373616304244e-02,-2.543479441958962362e-02,5.651238286579084863e-02,3.495164379742608102e-02,-9.820211050756712245e-02,-3.800716941938882959e-02,-1.233792501187731469e-02,8.116045098815213854e-02,9.313795924615299315e-02,1.018779384200183130e-01,3.501685257590667760e-02,-3.527306730900824083e-02,-2.738710241705463039e-02,-2.323042856064137102e-02,-1.158167416551605378e-01,-1.688978424464618044e-01,-1.376804096152159929e-01,1.600374927755857379e-01,2.045130445767537886e-01,1.143451412454486449e-01,-5.254407030748831781e-02,-5.383448074256043381e-02,5.267776565970504199e-02
-1.277188235031766039e+00,-1.273490125589433308e+00,-1.201323017199912746e+00,1.906127948255877391e-01,1.846987023775969738e-01,1.808624172092897497e-01,6.840277412391908285e-02,-1.714287574729372182e-02,-1.301876553467148923e-01,-1.051740401486863374e-01,2.989692860994029242e-02,5.685358403565694829e-02,8.748947259034800528e-02,4.597370471536025432e-02,6.279625604170553654e-02,3.793408190784056805e-02,4.811885930569527459e-02,7.345850298265575729e-02,2.743128004581626284e-02,1.364056319579681764e-02,-3.758420378840799519e-02,-1.323335809840542054e-01,-1.410507724517466588e-01,-1.176206715999427166e-01,8.732883862187509894e-02,8.297036350112280134e-02,6.675796868994456068e-02,1.573000026907292112e-02,2.658220790399458064e-02,4.610718251148457347e-02
-1.153698339856244592e+00,-1.110409329222646457e+00,-1.025755799962174031e+00,3.697078529671109920e-02,-9.686786771343264182e-04,-5.574060759297733841e-02,1.145983259154486761e-01,8.615473769782942826e-02,4.753291703064464746e-02,-1.492070517799902740e-01,-1.106471768140779993e-01,-6.440828604963814985e-02,1.895580081616294321e-01,2.003411154501444913e-01,1.852764820967521542e-01,9.633562042806885495e-02,4.633435593418466086e-02,-3.906842719517664153e-02,-1.298095708694134709e-01,-7.474401134863981055e-02,3.049916222535396099e-03,-1.205552646788687621e-01,-1.655731275503874445e-01,-1.865355929967918158e-01,1.378151412598654091e-01,1.344108405957005481e-01,9.704835480338994125e-02,-2.178210161440658280e-02,-4.721799067692412054e-03,3.873079444359123907e-02
-1.103321512904001267e+00,-1.097014420806343926e+00,-1.021793625326032684e+00,1.032566511511432972e-01,1.048165297269779833e-01,8.980146797891597199e-02,3.627174073524196130e-02,4.328041566393690115e-02,-4.727007869290134751e-03,-7.341798916671211928e-02,-9.759957359744442229e-02,-5.417477850664199901e-02,3.160338835421270393e-02,4.588021495113298737e-02,1.208011574643196896e-02,3.241464471907325867e-02,1.849148855328403354e-02,-6.960420214599808558e-03,-6.633457826857934447e-02,-5.832469474555748712e-02,-9.027154547640837967e-03,6.612626478502578453e-02,4.500839770302971637e-02,-3.972345598038375808e-02,-5.059826052394927887e-02,-4.396128385704493879e-02,-5.323866891700897164e-03,2.420002198126061654e-02,3.959998000901107651e-02,3.996521881332885245e-02
-1.220742400488824098e+00,-1.254174689155406197e+00,-1.225057145713348117e+00,1.880177023556848792e-01,3.008397755835310328e-01,3.349102500999353582e-01,1.894767251382383777e-01,9.305396340433261249e-02,2.547443843401146074e-02,-3.600340885955825021e-01,-3.815284430520289871e-01,-2.850737834517359515e-01,2.885715102991958103e-01,3.664068241407238968e-01,1.931478997059614677e-01,-1.020621673300814783e-02,-6.253437745393707059e-02,9.672798602571494597e-02,-1.114080034063439778e-01,-1.145989039055581304e-01,-1.869775152935411744e-01,1.433004966218617560e-01,1.798512924969102589e-01,1.063448242123154891e-01,-2.171779081682893853e-01,-2.728406290786185018e-01,-1.650291421872269459e-01,1.104301021475672939e-01,1.457287716887570861e-01,1.056381176594924365e-01
-1.078213965344875680e+00,-1.059023320220932485e+00,-1.003477798920553443e+00,5.939284988776231955e-02,1.388546216610385582e-02,-3.295782133762412830e-02,2.535790474733417080e-02,-9.805605331727664659e-04,-2.801621551441358521e-02,-6.753586755122140128e-02,6.495220257860105130e-03,7.884147387677031826e-02,3.108673850755395290e-02,4.682166572083690075e-03,-2.734222435149547686e-02,5.645901171239051108e-02,4.597929646621325833e-02,-1.396645660520224111e-02,7.404553561246883520e-02,8.395457925411772826e-02,7.234140047672384111e-02,-1.946908626730398106e-01,-1.610745809328780198e-01,-8.419019207148688289e-02,5.971681507058818755e-02,7.193823579683338021e-02,3.981310304877547224e-02,3.447672744929456551e-02,-5.776578004350684838e-03,-9.887196801841868516e-04
-1.200348295650857100e+00,-1.143944200668997713e+00,-1.027170085410529898e+00,1.950530903527366300e-01,1.258351494005822135e-01,5.569122408352789044e-02,4.973638143552085167e-02,3.507672011989081823e-02,-4.364296923889492835e-02,-9.317352965591658986e-02,-3.774267636489381933e-02,4.328022050328031618e-03,6.971890006839352727e-02,2.676731386091188436e-02,4.530308901038605091e-03,1.265354649446599235e-02,2.765225156178768330e-03,-1.975493335581529272e-02,-2.658781377894424078e-02,9.806744515934507841e-03,4.035079386714875843e-02,-9.454045902372218424e-02,-7.436909391691237659e-02,-6.780731131274492229e-02,8.719922707510394111e-02,3.742444793526290836e-02,1.699679863192377766e-02,3.812767264015171705e-04,1.844746286971899255e-02,3.652637584042409125e-02
-1.049405893574534065e+00,-9.578005265139397650e-01,-8.625268671106223195e-01,3.137334690156851763e-02,-4.508379008623421974e-02,-7.676650707349438885e-02,8.643207930208329781e-02,1.133861234044614419e-01,9.643613820787612367e-02,-1.496434391998210656e-01,-2.017286694696065197e-01,-1.886457722438976414e-01,1.189357704286155559e-01,7.829114269510889512e-02,-1.209181030095022626e-02,-4.376534885411562104e-02,-4.360459813131620233e-02,-6.060147813348103207e-02,-3.883330302568285819e-02,3.235837661917574659e-02,7.596454252499310056e-02,-3.104699005727310293e-02,-3.238885890618301011e-02,-2.782470978852143173e-02,2.439363755946206275e-02,-1.089718427576587961e-02,-3.267444341530830604e-02,5.167186418101902406e-02,6.755783828609661368e-02,8.879441300422763472e-02
-1.280320605639332143e+00,-1.226883011655835354e+00,-1.104273807270309993e+00,3.248316234854206064e-01,2.190333369916264428e-01,4.146169145501746311e-02,-4.138265528368679363e-02,1.226356477511458820e-02,6.452966333139023569e-02,-1.625947327516953991e-02,-2.142292898084655409e-02,-1.229974335935488799e-02,5.505797113260963577e-02,4.347919332428767242e-02,5.575660094266274118e-03,-1.450605985295074229e-01,-1.365044720795389743e-01,-7.896256555697402091e-02,9.858712087061477503e-02,7.482486984223629678e-02,3.154356927044127401e-02,-9.816971880007266393e-02,-5.264521357554780706e-02,-3.257478006444915891e-02,1.316996620430534448e-01,9.984070990527618705e-02,9.036359611388734836e-02,-2.885886853989683143e-02,-1.188328924350532355e-02,-5.302261571270340881e-03
-1.172155333263254828e+00,-1.099348141380384059e+00,-9.519530803767174421e-01,1.607079788102158124e-01,6.551814922981957778e-02,-2.844590623032018650e-02,4.200084781368104009e-02,4.631976107335506604e-02,8.384021205504891064e-03,-1.294867685420887093e-01,-9.701600995300518893e-02,-8.537846860523286285e-02,1.224027566499042569e-01,1.091923716196265409e-01,7.676082995752868399e-02,1.069912251824194430e-02,-2.508727706829740056e-02,-8.665968386069457241e-02,3.459665894553821952e-02,4.743789108048852843e-02,1.532299921051217574e-02,-1.883534461134672711e-01,-1.822253920522161064e-01,-5.875855885692567171e-02,1.460791195420724498e-01,1.327671542207060351e-01,1.027713808229670372e-01,-2.640971228467974691e-02,2.511897561855515153e-03,8.018193124439949512e-03
-1.155081663658458657e+00,-1.074308009516287798e+00,-9.231358397977957875e-01,1.148762726928138078e-01,5.944620399189445847e-02,6.909785663705463737e-03,9.460974255589459092e-02,3.090842597804819084e-02,-6.843749703034357479e-02,-7.018978106077179702e-02,-3.005673906184146149e-02,-1.644226222627180600e-02,-1.473635014041608030e-02,-3.012413580605382592e-03,1.161734595249514640e-02,3.634836005414007754e-02,1.662207527599708981e-02,-1.624870369015291027e-02,-5.234604261939936054e-02,-6.396803020269446749e-02,-3.664279962684281744e-02,-6.355349766017963364e-02,-5.419845441150651644e-02,-6.111191250293228350e-02,4.286209532118329113e-02,2.047125183016391958e-02,2.223549873756813788e-02,6.733546768146120298e-02,9.819642157516787762e-02,8.132226127050957987e-02
-1.221891859657353363e+00,-1.159977208822681183e+00,-1.062428950167236597e+00,2.092132313783990893e-01,1.207889755530154458e-01,6.310198483426274207e-02,3.130914412989830448e-02,3.017113237357920905e-02,-1.063941300358161798e-02,-1.547238949367595318e-01,-7.442867163311105150e-02,-2.880924524524171998e-02,1.862335620180764484e-01,7.670495930073890911e-02,-1.160722200559885335e-02,-1.442667523157923903e-01,-8.823687259319633325e-02,-1.209673584968630651e-02,1.103267059088454266e-01,2.060748475790303083e-02,-5.262604887609290127e-02,-1.040736821955419722e-01,1.363429420645597030e-02,4.911000665339032567e-02,-1.213202706477946313e-02,7.911337279786767596e-06,7.146850891877637446e-03,1.001492694290265634e-01,6.085392324664156555e-02,5.894657587891347084e-02
-1.237863391642759270e+00,-1.120968963843725907e+00,-9.540768183610840447e-01,1.926259019807887163e-01,7.897224690054852059e-02,-1.539232650862840113e-02,1.001041473889077854e-01,5.708428914768529788e-02,-2.597869029175924049e-02,-8.157296351808526746e-02,-2.768097327487742398e-02,-1.612951278341594880e-02,9.722393278610880207e-02,8.870779942459483536e-02,4.422581683653280943e-02,-1.525063433776514543e-01,-1.391804081953116612e-01,-7.155626293194872201e-02,5.531382057015984260e-02,1.395864580694471807e-02,4.266919232465441955e-03,-4.660413512188694984e-02,-1.399853363944873579e-02,-2.338355530953126378e-03,6.242155149974844275e-02,2.305418490418423283e-02,4.371139043859887524e-03,1.096480769642787893e-02,4.013185650069890642e-02,3.266385057799532643e-02
-1.335050920110191219e+00,-1.317364066781721466e+00,-1.154259781721651112e+00,3.642221844799476971e-01,3.328900500279697861e-01,1.740004625928505966e-01,-9.431189706106576920e-02,-9.611843773652341272e-02,-8.988194142709411694e-02,-7.512098019294469187e-02,-4.160839087231907318e-02,3.801580391871979547e-02,1.470802614646329332e-01,1.152985494751945228e-01,3.639231901402008307e-02,-2.183810862040006309e-02,3.813745226959574380e-02,3.965496040166587716e-02,9.638114913336760792e-02,5.053949876174212985e-02,2.479764463177790840e-02,-1.821094701475570732e-01,-1.737403787194442828e-01,-1.500668199100574918e-01,1.460485799304007126e-01,1.234339911139962220e-01,1.241909838120282827e-01,-4.516349513646589209e-02,-3.136356095881458889e-02,-4.276590334248642211e-02
-1.058803259459323520e+00,-1.072075226524531466e+00,-1.070075378271525324e+00,5.819294544305121664e-02,1.122538805990299510e-01,1.701893644512018355e-01,2.038117260494259203e-02,-4.207230479781102345e-02,-1.185329760276662148e-01,-1.251958972282413984e-01,-9.950832279691833315e-02,-4.408486479186624063e-02,1.076429007835413981e-01,8.798895372608583898e-02,3.551429970235425726e-02,-3.599628008032496745e-02,-5.835482281310468838e-02,-3.328584299338196301e-02,2.963833951804911368e-02,4.048622489678155995e-02,5.974040896309176091e-02,-1.969443344957277353e-01,-6.766986956836162914e-02,-1.813044786670624242e-02,1.871364671397707791e-01,1.082943220323473454e-01,1.560301054407844251e-02,1.403022617194559646e-02,-9.275937192881325219e-03,3.128128102691736176e-03
-9.750415188610018769e-01,-9.742152467786413528e-01,-9.058831831489060349e-01,-1.333117641885403770e-01,-5.655787585054702915e-02,-6.544655602160337135e-03,1.555497170072747404e-01,9.916832216655251109e-02,-7.854785308930226431e-03,-9.453973501215476305e-02,-1.232259902267403978e-01,-1.029557453823404245e-01,-1.206391319377796145e-01,-1.206926906592837995e-01,-8.331915014609665715e-02,2.300015927614674494e-01,2.611352432451635175e-01,2.066978583906994849e-01,-8.707941134392073457e-02,-1.599352527517066413e-01,-1.954196953413578908e-01,-4.611696646096191676e-02,4.152862854646129087e-02,1.306924336170106338e-01,8.890566731438238890e-02,2.771722462196615777e-02,-5.510891606380553809e-02,-1.730127119434931096e-02,5.420698650107511063e-03,1.987716180100843055e-02
-1.192008241426120163e+00,-1.000214365990745424e+00,-7.430341468306583819e-01,8.334205337006098113e-02,-1.125156803755271856e-01,-2.167254696775410827e-01,5.032678073840150812e-02,1.201419519601770597e-01,5.046639027081862433e-02,-4.779083245629486137e-02,-5.063801495012230230e-02,-2.337734885220678002e-02,1.175436045037855093e-01,-6.871302661041736592e-02,-1.637802001509758298e-01,-4.058101837132183781e-02,6.609661395154879659e-02,2.310975805240650036e-02,6.195459505765317509e-02,9.427440474916988500e-02,3.702882897234919396e-02,-8.007836650773252074e-02,-1.381017648185823565e-01,-8.874884289072980381e-02,6.161687219104346885e-02,8.110926985688732271e-02,1.267522366850009352e-01,-1.410284243935983409e-02,8.762561708564620480e-03,-1.546328352342889048e-03
-8.455749571257170638e-01,-8.172161224321614625e-01,-6.916636523629703381e-01,-6.850219293655782082e-02,-1.282810595188925706e-01,-1.846903031004865359e-01,-4.837355847577391732e-02,-4.069311832789238026e-02,-1.072901182068627807e-01,-1.737179895875657354e-01,-1.262129979763147447e-01,-8.300358000776804357e-02,1.006533239531108848e-01,8.449064914148739225e-02,8.745224341313538596e-02,1.391877656828754972e-01,1.407871283531903772e-01,3.097256608573810063e-02,-1.873981056091653108e-01,-2.626802650192857080e-01,-1.660313674392454308e-01,1.098284556463135359e-01,1.332951076033314919e-01,1.091644006848977722e-01,1.172290650917612170e-01,1.539385892564431590e-01,5.743637735746504047e-02,-1.431506620170055200e-01,-1.372621525852027180e-01,-5.218171313447938359e-02
-9.929659249896057860e-01,-8.773230539173793030e-01,-7.058688726765078858e-01,-7.327963608359583381e-02,-1.586972189142984158e-01,-2.776365252918791549e-01,7.122504574290411394e-02,-2.659254444208758797e-02,-3.768149640962447505e-02,-1.517296674122338429e-01,-5.506058443946180991e-02,-6.582660694954592384e-02,1.490808036891496935e-01,1.608083299108673536e-01,1.571969947573546578e-01,-2.256798621169662719e-02,-6.360351891736554242e-02,-9.723012440111537813e-02,2.689141905795666004e-02,-1.377414051168339426e-02,-6.781174150634977638e-03,-8.289559613627862922e-02,-7.048838563272555313e-02,-9.966038322471972022e-02,1.869975090270273310e-02,5.421991326714973441e-02,9.728507750293174938e-02,5.773550146536192418e-02,5.068935868037083292e-02,3.633970823413117807e-02
-1.158020614902247392e+00,-1.188834320444594583e+00,-1.136927315375911407e+00,-1.718354963706138910e-02,1.634632822225523807e-01,2.983362492889274353e-01,1.291571236475863860e-01,-1.309613171287458229e-03,-1.196764366359589354e-01,-2.254212334286324546e-02,-6.367967693057441370e-02,-9.830272630229174025e-02,8.571400145700548701e-02,9.000211458208198789e-02,8.727609396311362955e-02,-1.599493806148806763e-01,-1.288073250517460522e-01,-1.045079514068356641e-01,2.259968871847404040e-02,5.817239525400522658e-03,2.761838181168613932e-03,1.863261798773975242e-01,1.593517675690840907e-01,1.948453487015758961e-02,-9.569572602616047141e-02,-8.079552475089288310e-02,2.997994838745803026e-02,2.993920731593198437e-02,4.505949711661885737e-02,2.169728290591492470e-02
-1.414316991858096895e+00,-1.299317422315092063e+00,-9.824253874126859243e-01,2.189547958912043124e-01,1.034948459063832621e-01,-1.525837300921583650e-01,1.088119969388701147e-01,1.122814009049041550e-01,1.326846812536036646e-01,1.964913860123787825e-01,1.009377436449644949e-01,-9.338138853524216576e-02,-1.442073202880972960e-01,-6.311394604667762420e-02,-1.874728389381926166e-02,-1.020471454367154474e-01,-1.420987402790675203e-01,-4.541868896832233771e-02,1.733500515849319967e-01,2.987780680789671739e-01,1.795840856011376441e-01,1.372924432625101041e-02,-8.519791413279273473e-02,-2.160017648188855555e-02,-7.235753493057342500e-02,-5.133196663612542981e-03,5.703237394553095641e-02,2.202711256650794272e-02,-2.029772806262699833e-02,-5.492387294649039159e-02
-1.190312619366905800e+00,-1.070992671249324291e+00,-9.441374985760138117e-01,2.975464265311377199e-01,1.757658363870045759e-01,8.050370830224345964e-02,-1.279560222613261300e-01,-1.090265267660614629e-01,-1.221394279511230779e-01,-7.907528899383429316e-03,-2.745275703540050322e-02,-9.490409449249437995e-05,5.820592460027384368e-02,9.766403091912588541e-03,-1.245829179112356438e-01,-7.618365805619235764e-02,-5.581571121552053594e-02,3.462338917662603072e-02,1.280018371182917725e-01,8.401928267417585472e-02,2.709499990440334544e-03,-2.064359999453307115e-01,-9.473234320510021123e-02,-6.125112775809616467e-03,9.935749031492521754e-02,1.458979730762571814e-02,-3.771348611863992173e-02,2.579152676962618781e-02,7.397005506614003079e-02,1.170476845191864707e-01
-1.181686412109201667e+00,-1.152513641109988551e+00,-1.061305648322367734e+00,3.629158391007449719e-02,7.183214011838323990e-03,-1.928562953905160055e-02,1.373413483045690942e-01,1.379335757636446225e-01,7.037677223361492318e-02,-1.313241266217359815e-01,-1.473666140487424614e-01,-1.569784998671481246e-01,1.137213152890968332e-01,1.272811929476523329e-01,1.469297843033020301e-01,3.781070369663891428e-02,3.935977911425641435e-02,5.206473848916793462e-02,2.638965332568314962e-02,5.554651912890294641e-02,6.288154836887915877e-02,-7.393154508685949311e-02,-1.272915488965948860e-01,-1.735997271228518490e-01,7.679160150326955203e-02,9.524434884059237993e-02,9.186822517526402332e-02,-4.115771351776336545e-02,-3.517937638626689179e-02,-1.285197777036725143e-02
-1.045193099715828078e+00,-1.012470582582231549e+00,-9.743613655195951795e-01,2.664009647951791002e-02,-2.133281876966499485e-02,-3.555669247711421010e-02,1.106746812735028007e-01,1.254882260862485721e-01,7.397760404970626924e-02,-2.769152573695275454e-01,-2.028570494136160418e-01,-9.259509192894502250e-02,1.995902900830271165e-01,1.312845077196130306e-01,6.832505884394443618e-02,-8.706950095688974212e-02,-7.920161818315886448e-02,-7.849734625402764177e-02,9.066644630387647730e-02,9.377057946578242278e-03,-4.844159307709484247e-02,-1.426396538753381404e-01,-4.189508655640954149e-02,4.678005966004846264e-03,1.657523745794313441e-02,-1.476876914419771036e-02,-1.617702896113655531e-02,1.077780135749639157e-01,1.064688592132533168e-01,9.871573984590281681e-02
-9.667927794240470663e-01,-8.848790952155578537e-01,-7.973936763012553497e-01,-7.463002198179333191e-02,-9.659955853536279780e-02,-7.642629610513985983e-02,-5.089812679040128102e-02,-1.090346086146410376e-01,-1.398807694400645008e-01,-3.369576219806133532e-02,-1.591348694272542476e-03,2.815312998940957406e-02,7.347925824672077444e-02,-8.760223758506663003e-03,-7.225318247730219690e-02,-2.435299399830491082e-02,1.038517012622323585e-02,1.443176196313706271e-02,1.104174526216532143e-01,7.560263120882527998e-02,-5.915069674826594140e-03,-9.874876257245868150e-02,-2.517247272889088644e-02,1.449816657860395278e-02,6.565001022687778909e-02,7.053948002192379080e-03,-3.418301907653076288e-02,-3.356939772569918819e-04,3.306943303383525629e-02,6.902224120206812419e-02
-9.809553014008671745e-01,-9.001048015863718499e-01,-8.105359219756944622e-01,-7.359636628590414398e-02,-1.240984399841060098e-01,-1.153913786664707841e-01,1.746500441932866479e-02,-4.065979164566293352e-02,-1.079598708580866845e-01,-9.104520862079482080e-02,-3.648467920029270506e-02,4.403019856187267989e-03,1.366607164558177601e-01,8.456609071934320654e-02,2.739533938494260329e-02,1.898400552082077711e-03,1.302135468075801134e-02,1.068421267670389627e-02,4.716715415053021263e-03,8.439803432380809170e-03,-1.133614477702726830e-02,-1.872335515568189779e-01,-2.022519974899359696e-01,-1.621333988755069844e-01,1.267295613760169304e-01,1.265570397456572682e-01,5.728269887593874510e-02,4.544305392371101454e-02,7.108803863842515225e-02,1.076420738191112281e-01
-1.361880483699327904e+00,-1.259815931144225187e+00,-9.916239817674449286e-01,4.291204125033173944e-01,2.862721990540919026e-01,5.698701860509408634e-02,-6.534128066184767547e-02,-4.629594655214129550e-02,-1.014785786993197686e-01,-8.908118572659942669e-02,-5.559850781392374625e-02,-1.603408559946692749e-02,8.713931162573905487e-02,6.913297357756988115e-02,8.218391834988628131e-02,-2.511895472507222338e-02,-1.225680472682637474e-02,-3.177717257086831899e-03,1.018283082586124849e-01,1.046032835434627245e-01,1.668485889723442597e-02,-2.523575356548316551e-01,-2.264580832420493850e-01,-1.326954522987807694e-01,2.529908078038731745e-01,1.520986400967254126e-01,-8.352933536735523967e-03,-7.717399709437489097e-02,-1.157949480390126594e-02,9.757670818432059856e-02
-1.202254823944489903e+00,-1.171067713341218175e+00,-9.928355806480612111e-01,1.541196101289434850e-01,1.396942913521393714e-01,3.857666223838419894e-02,5.071534468543206775e-04,7.355553844820998666e-02,8.757478992572237386e-02,2.628868104138135792e-02,-1.124108149521813593e-01,-2.079115734122507220e-01,2.839307953240357077e-02,6.235604483702639200e-02,8.256257008404133124e-02,-2.188956582322042904e-02,-1.438151094432394556e-04,-1.051903362057287315e-02,-2.157554096287766371e-02,-4.615015357560772746e-02,-2.698966403585964860e-02,-1.168844320041056636e-03,5.495272810163358973e-03,-2.179619326692765896e-02,-3.263276898542622623e-02,-2.743396784792394294e-02,-1.414623324146960237e-02,7.036488295109363800e-02,7.623245109897883176e-02,6.556130135270976655e-02
-8.702512114407051635e-01,-8.124549299528536217e-01,-7.612450788803202251e-01,-1.046166927906694438e-01,-1.004330225341394378e-01,-1.121059966748819692e-01,1.300892279433381316e-02,-5.242446132523218699e-02,-7.724142931926976374e-02,-1.665393510349069961e-01,-1.345026126120219268e-01,-9.579057240700455944e-02,4.652757776365026160e-02,8.341149937517524510e-03,-1.559026978527591409e-02,4.850221098107176942e-02,3.776145851041964874e-02,1.506287346392169713e-02,-2.352611135601137635e-03,4.227992854707353365e-02,9.244474079015037316e-02,-1.419807956531082827e-01,-2.133186545407650125e-01,-2.540251230504546598e-01,1.131283714105927041e-01,1.113030327221637833e-01,1.015844677547227820e-01,6.466518691488493120e-02,1.135217526263669202e-01,1.069709575632212806e-01
-9.927359346223562087e-01,-9.628839037891708807e-01,-8.286785643173072424e-01,-3.014481974986039231e-03,-1.104011622372650693e-02,-7.869935193669530538e-02,-2.563954661624468639e-02,6.262329372280973916e-03,7.678214970828029992e-03,2.548893115809797855e-02,-1.752788082966983546e-02,-3.285111769729804048e-04,4.854558193680217834e-03,-1.744730357264150447e-02,-9.268282452162243668e-02,-1.611049688615319095e-02,-1.281666986905514137e-02,3.514159490884856407e-02,2.509693182886545137e-02,-1.574247108925851167e-03,-7.652743027035019407e-02,-7.487317440113394618e-02,2.754968916646573750e-03,2.921868543890066353e-02,4.975890219641632833e-02,-2.031058108257421599e-02,-4.287276678938600066e-02,7.243098440555259705e-03,3.464610323839138750e-02,4.780984593876802524e-02
-1.162786653856595853e+00,-1.078076525572076116e+00,-8.783278215540486489e-01,8.564506474415360671e-02,-2.082330062264379708e-02,-1.482783436154975765e-01,1.821867744330173816e-02,5.046852339754583777e-02,-5.180886000707876464e-03,3.112893323961700084e-02,3.909900281577406017e-02,5.141747512191900682e-02,-5.266515882844847313e-02,-9.890453131204199333e-02,-9.750962275911204125e-02,8.906617806345183685e-02,1.449962841213930376e-01,1.421698789101797922e-01,7.677491367652354570e-02,2.270266282119188204e-03,-8.008448303606405250e-02,-2.010537384655351478e-01,-1.811619170038485382e-01,-7.887644036359303668e-02,1.202309648387133445e-01,1.524297802733205753e-01,6.352192539450880748e-02,-4.344899910472412030e-03,-1.011457647364284035e-02,3.126504240723029099e-02
-1.123794397633229192e+00,-1.057205288104209329e+00,-9.231692769326028669e-01,9.365221877334996281e-02,2.510147814989235546e-02,-4.554899501943904250e-02,-3.701640759836668376e-02,-2.192044510828722662e-02,-1.558953213103129315e-02,-4.245991523835370568e-02,-4.017377995249761524e-02,-6.337844416333281161e-02,1.009232712227273454e-01,7.365802500286672272e-02,6.514244972773086673e-02,5.400386396747794415e-03,-6.247451299657964894e-04,-3.414189549082508740e-02,5.114672852086904475e-02,8.609480902693349147e-02,6.288978124369611067e-02,-8.281298536734657545e-02,-1.344335058229246538e-01,-1.738812213204736501e-01,-2.874839492375567962e-03,3.272974403282156303e-02,6.903396021614804923e-02,3.794542529285922783e-02,3.686236650518007890e-02,5.870248044120138231e-02
-9.644319629643365310e-01,-9.051025349173363876e-01,-8.493029490685428673e-01,-7.572786624378664844e-02,-8.247619451953602798e-02,-9.823362886997288879e-02,-1.492604962518526666e-02,-5.792641507994909095e-02,-9.064941802827987394e-02,-7.074600590816543244e-02,-7.399062117027326024e-02,-1.059719379298783570e-01,-4.096359939493822953e-03,-1.807212039854436125e-02,6.034672863589232022e-02,1.294406295830166087e-01,1.117814773461453526e-01,-2.152785168162984347e-02,-7.969619249707219147e-03,1.084091352227495135e-02,4.678512410168172986e-02,-1.273839969059165078e-01,-1.310223697658738640e-01,-7.632416044091072660e-02,-1.198564362874354750e-03,1.199054224843329464e-02,-5.954676462825839178e-03,1.372154338586019928e-01,1.341126271980223328e-01,1.409431425135108384e-01
-1.120607748892817446e+00,-1.103975097825032448e+00,-1.038150411429935138e+00,-4.046684747089533685e-02,-6.995672003533423208e-03,5.594308191886584319e-02,1.412687099676643854e-01,9.184521234187285887e-02,-3.333957462327604565e-02,-3.529795213060474973e-02,-2.261201348011251250e-02,6.028307930574330897e-02,9.519457078540209671e-02,9.938165019481226548e-02,-6.647266666256029799e-02,-6.520050984449651810e-02,-1.212048736366345414e-01,-2.073271171099604071e-02,4.156706111205084320e-02,8.966862758351788754e-02,9.988606374799047227e-02,-6.066625173674250471e-02,-7.045078233761893627e-02,-8.764628894065175368e-02,1.989459442504656894e-03,2.041756865581105876e-02,4.204516793885204606e-02,4.262531924033519798e-02,2.425299486646983679e-02,-1.157468656220222818e-02
-1.030571941988803086e+00,-1.002992654592859800e+00,-8.813717470626137862e-01,1.239526052828309084e-02,1.824794021859050056e-02,-8.796296066634742838e-02,1.256754418403460000e-02,-2.370828790635367417e-02,2.939724958300591988e-03,4.980289140912972506e-02,3.320026950001130073e-02,-2.543168139360023686e-02,-1.354736165651197234e-02,6.448770210082803087e-03,5.513196411416940168e-02,5.487315307940753006e-02,1.992782081026815352e-02,-5.868076707290758448e-02,-8.427353516443855663e-02,-6.510179735624795072e-02,-3.511544757238330844e-02,-6.615431241940832041e-02,-5.083423923385953225e-02,-5.144907170865878343e-02,5.261741730891932034e-02,3.238789864513535316e-02,9.103490426533829283e-02,1.243135192794286338e-02,3.255233760336370685e-02,-8.978486005712292550e-03
-1.489782094406544743e+00,-1.409139110147058949e+00,-1.147618164306601241e+00,5.766389074681502747e-01,4.711161054081600130e-01,2.280760174319661493e-01,-1.947012415499041194e-01,-1.925713833986186230e-01,-1.702268701254261996e-01,1.066045637795526024e-01,1.279132049622179745e-01,6.165228490011651075e-02,3.296864159777653652e-02,1.153137144916219561e-02,-7.381904023355742583e-03,-2.844177915441275378e-02,-5.408675086778173824e-02,-5.824564929719452250e-02,7.314548780235580715e-03,7.077719835301936324e-02,6.740154900167243113e-02,-6.095300998864941477e-02,-5.166752034639310320e-02,-3.784112248366536257e-02,3.804889099457496593e-02,-1.269815935923626626e-02,2.023381952206684820e-02,1.248999111551751459e-02,3.898281672038082096e-02,4.407855407536111214e-02
-1.073272545161994662e+00,-1.025157282575089646e+00,-9.138002727064148401e-01,5.022502409135226609e-02,6.725111878065686763e-03,-7.070670762142849952e-02,-5.207646100734025785e-02,-5.656683213534829252e-02,-2.894567687813034973e-02,3.233906159570057448e-02,1.322378077681617484e-02,-3.719251044640186493e-02,-2.414042905325042634e-02,2.652770643680030585e-02,9.182280126194104775e-02,2.256287122633261408e-02,1.756798788541989731e-02,-2.531333994208634017e-02,3.490817862781711578e-02,1.032666645921984441e-02,3.143711838057881326e-03,8.391444880434675846e-02,6.120562684596159153e-02,-1.651911376241730484e-02,-8.349659311169321807e-03,4.555460485941360826e-03,4.483554055450716946e-02,-6.590209666419358236e-02,-5.823388083442950641e-02,-4.718661996954370136e-02
-9.719367045245075332e-01,-9.406102923349023426e-01,-8.503234700071689023e-01,8.194635830614631355e-02,9.090835555428646020e-02,6.267197742967825502e-02,-1.193249522754588898e-01,-8.236005684105679459e-02,-4.454125589064222845e-02,-3.643602465804349905e-02,-1.321819774109916634e-01,-1.555392175348548345e-01,7.158947868956283545e-02,1.229745208271081081e-01,1.029747486091522196e-01,-1.398335480012798115e-01,-1.355181060052980113e-01,-7.008495336227088535e-02,6.096256881657984711e-02,4.376797577453353993e-04,-1.099237286205792113e-01,7.959389300557007108e-02,9.947136786422040855e-02,9.058320791566588925e-02,-3.524127494514722042e-02,-2.873334475307980085e-02,5.162148622321528768e-02,8.938344923370668965e-03,5.806313584969639147e-03,-7.733898592645485626e-02
-1.129179517500132013e+00,-1.128851072510119291e+00,-1.037907186332900578e+00,4.851387731000145892e-02,2.257872860165573148e-02,-8.155814789585755231e-03,9.197650156491227191e-02,1.518865117982883817e-01,9.312591077709275744e-02,-1.219690771862653317e-02,-5.100970542986053846e-02,-4.836392193729667499e-02,-7.983330911355225601e-02,-8.076565837014772209e-02,-7.365835674986356829e-02,1.214449099412591299e-01,1.130157756617850562e-01,7.790581706296788311e-02,-2.914642510463783670e-02,1.519653831928434104e-02,5.738917724369903967e-02,-1.554482564950020740e-01,-1.917053813871750778e-01,-1.457366043400993849e-01,1.118362370906003933e-01,1.214168925423554091e-01,7.608969559524599025e-02,3.223024808568902833e-02,2.840077083158142057e-02,9.435706413397455458e-03
-1.078949171912789717e+00,-1.071724532754039672e+00,-1.013462030717774409e+00,-9.368934515393120832e-02,-8.768393692157158692e-02,4.172975564012183780e-02,1.559737741524337175e-02,-7.566296829739505014e-02,-2.798464522384446207e-01,-8.918888398375252047e-02,2.957229548335100350e-02,2.165889785500721698e-01,4.147278079863150890e-01,4.627158003146265575e-01,1.461062437563770411e-01,-1.713168681782714919e-01,-2.423768939819739010e-01,-3.835785671082082848e-02,-5.919744622317463408e-03,-9.061787945366156505e-02,-2.296297001367297586e-01,-1.099316282499052458e-02,4.119900285982847077e-02,8.908302662659123294e-02,-5.441947147630833009e-02,-6.633271527757227115e-02,4.152831984032195889e-02,7.455914571323962736e-02,1.011940491043616941e-01,2.638459478984794132e-02
-1.218823825614095968e+00,-1.163905300816487909e+00,-1.027629454806471943e+00,2.524371110756888359e-01,1.865717259849549448e-01,5.874290827716595331e-02,-1.214059597279776997e-01,-8.858234702672126981e-02,-5.015586906502893932e-02,7.891546109061101100e-02,8.496756049554879398e-02,8.157228507587098443e-02,-2.088417380881335550e-02,-5.012270909755134340e-02,-9.052335901354421899e-02,-6.656763999659187636e-02,-7.083613065737710823e-02,-1.614759937971638193e-02,1.673779796572730516e-01,1.602820420168110660e-01,6.796839462649248431e-02,-1.252069557108203279e-01,-5.355523421319983990e-02,4.883642814496882978e-02,2.287061139591761022e-02,-1.039202017373846709e-01,-2.367000915373163039e-01,3.149812469387146957e-02,9.926875026760947907e-02,1.641496025196997055e-01
-1.106757623233374010e+00,-1.087559607642559545e+00,-1.001418253190087704e+00,1.958325403839500725e-02,4.717522455471778037e-02,7.007244966503813066e-02,2.139128889682159057e-02,-4.303521568577804018e-03,-4.372511076975015010e-02,3.133558347553385554e-02,2.383998796305207123e-03,-9.378070672618708803e-02,4.366930816927618031e-02,4.165467961021589519e-03,3.195477254020717695e-02,-8.466525127081529767e-02,-2.405923214452707765e-02,2.691083857429084000e-02,2.990676449878605300e-02,3.234536698882206109e-03,-4.099429135378173522e-02,1.287156910249299090e-02,-6.610678310556634268e-03,-1.395676587637603369e-02,4.019936259280917218e-02,6.959823371295546790e-02,7.666464226784096281e-02,-7.290877402282084675e-03,-3.820737558001433519e-03,-1.160211138359187877e-02
-1.302020773314315205e+00,-1.197333021047685353e+00,-9.084735155227301462e-01,1.749037289749923452e-01,4.199696987146268531e-03,-1.411159735759916212e-01,1.214122737896404236e-01,2.551027395097029693e-01,1.131030368838196326e-01,-9.861098704281870408e-02,-1.432991915517722314e-01,-1.009512749289438877e-01,1.641905716426327044e-01,7.648184023477985760e-02,-3.494654853289728969e-02,-1.287225894544076835e-02,6.111751772770156188e-02,7.332409051452934423e-02,-9.248529598350397132e-03,-1.026613280470060202e-01,-9.818395157719982114e-02,-1.115928166617176781e-01,-2.622902126830708308e-02,-4.743178728504650332e-02,9.514451375221305574e-03,5.077379464522754904e-02,8.808063907852548002e-02,6.449240666730976512e-02,2.197167860464886713e-02,5.669053684613944294e-02
-9.880448587000041361e-01,-9.564632207844558920e-01,-9.375951052097301064e-01,-3.905353137034926064e-02,-1.818770230708245325e-02,4.803695576099888120e-02,6.202365177235680954e-02,4.398389781942518839e-02,-2.716569168777982967e-04,-1.493257809798061442e-01,-1.401327786541269049e-01,-7.988701088306485176e-02,9.907262748061634872e-02,3.825600384138577031e-02,-4.714964267851535357e-02,1.166688209037885018e-02,-6.152085625965570022e-03,-7.121268730434600867e-03,1.246384956947536177e-02,2.613710895917619598e-03,-1.902107341074512140e-02,-1.210552709959090423e-01,-5.368753878586669803e-02,1.437830181646059663e-02,1.170528265089471887e-01,4.843210951386716506e-02,-3.494526528736380255e-02,-4.731404390098297233e-03,4.139502530730784780e-02,6.362046740651682020e-02
-1.156679196636275497e+00,-1.100065665217380806e+00,-9.615526973989783066e-01,1.208758845654827468e-01,7.346930907362647645e-02,-3.913613184053370449e-03,7.487614028871085459e-02,3.938452364513295167e-02,-4.416243480266313082e-02,-6.918571650028366993e-02,-4.833430033059651215e-02,-1.339047619728245958e-02,-2.759099443241860503e-02,1.333545012999084317e-02,4.445620330269954568e-02,5.869340298340347539e-02,4.240214410889243252e-02,4.809697439347776493e-02,2.987113418156872851e-03,-3.582462026420143997e-02,-9.889809033221060031e-02,-1.724377294888836121e-02,4.635137022739443252e-03,-8.373659276650980213e-03,-2.750363045239362716e-02,-4.062213343920130504e-02,-1.989908280346022740e-02,4.093259347778287899e-02,5.175076806189303491e-02,5.772203252757264480e-02
-1.219242795736091622e+00,-1.167662166218579767e+00,-1.054914250744739546e+00,1.673292412298591492e-01,8.968444103761294417e-02,1.072799702484763668e-01,2.992124567995976467e-02,1.197652172613311722e-01,6.480321339582758439e-03,-6.398540731640831036e-02,-8.525949091792245360e-02,-6.490099018317174728e-02,8.406900896686983482e-02,5.324527761055201230e-02,7.384661742707041010e-02,4.347181123100767736e-02,-2.782332391918100611e-02,-1.152420081118983308e-01,-4.060951089350214177e-02,6.251099052642428155e-02,6.323932703423831847e-02,-1.618230526827417470e-01,-1.917998895180283991e-01,-1.309432281306826262e-01,9.773294223407381909e-02,-1.229625409361254085e-02,-5.326313994799294904e-02,6.325913122597866256e-02,1.597233235198163848e-01,1.684775939817172163e-01
-1.096785690166937943e+00,-1.053466469839645647e+00,-1.001376637780050149e+00,-9.992027197278041672e-02,-1.421562244256229790e-01,-1.420352393736145635e-01,2.901185707828177751e-01,2.944431847050368312e-01,2.713103252721361103e-01,-1.140636267766175493e-01,-1.094952633782955570e-01,-1.425929676966275761e-01,4.357816006910317924e-02,5.027720373452940206e-02,4.568791679015288265e-02,-2.180668522390550451e-02,-3.024576446428066043e-02,4.544565911139000075e-02,2.018356176761669854e-02,3.016025179786595636e-02,-2.332415063554880291e-02,-1.013901299757903052e-01,-1.408606100032573638e-01,-1.905705017931911271e-01,1.348077965906639697e-02,2.961938419042742243e-02,8.872027083826643234e-02,6.676072650143742571e-02,7.185258657442240848e-02,4.882786529779604978e-02
-1.087054582870460084e+00,-1.026477168251281435e+00,-8.851496287750095782e-01,6.646991845633107299e-02,2.238609960306894159e-02,-9.221157526447042174e-02,-3.736173479573835776e-02,-2.555805822934199487e-02,-8.896269768539754458e-04,-8.607242308005652598e-02,-1.380409383173334115e-01,-1.822437877285573993e-01,1.667594876179208374e-01,1.859444221980954548e-01,1.396169920756825666e-01,-3.934819769512296062e-02,-3.202195699923273114e-03,6.119830477619597753e-02,3.662403477055332229e-02,-3.415027437228429497e-02,-8.866966383615326741e-02,-1.240545043482979282e-01,-5.998050540823663540e-02,-1.230381882122132987e-02,6.767043914078289812e-02,3.447522576714022458e-02,1.558262416648095727e-03,3.655223560508868291e-02,4.475721970522517773e-02,5.920257917382554941e-02
-9.341808183088211592e-01,-9.393056838692481758e-01,-9.487319707198520469e-01,-2.088629884639656153e-02,6.939042716851576663e-03,5.408227073512404670e-02,-1.033053105967997737e-01,-9.686150477254773516e-02,-8.597214834217860313e-02,7.488971008927987338e-03,1.304932851527215373e-02,2.432207224088876393e-03,6.797972267680989222e-02,4.234648292356560373e-02,2.147909439590832761e-02,3.895173119581539500e-02,3.427977963925326471e-02,2.862932015979393133e-02,-3.498715355193495607e-02,-3.238625232537133136e-02,-3.271036021906464919e-02,1.670679422563407790e-02,2.856897085050872850e-02,4.134742090523632618e-02,-5.269214799117321463e-02,-7.045918602146702958e-02,-8.535396448909644829e-02,1.504037761184779005e-02,1.392603319484036518e-02,4.875886736238635444e-03
-1.005196534572372569e+00,-9.441949847984213440e-01,-8.661648947471692894e-01,-7.979371080780381376e-02,-9.616176830517378371e-02,-7.834944625195151835e-02,-4.200146390186481303e-03,3.546866279762831038e-03,4.571813817268578772e-02,1.393945863131015039e-01,6.521045762508302646e-02,-5.082047937870678295e-02,-5.637651324655761770e-02,-5.185211282001845473e-02,-6.570172325676479352e-02,-4.066737926217887933e-02,-2.641781130900321475e-02,7.807429010898300770e-03,-2.650713046020069380e-02,1.008203262085352256e-02,2.287780819518849679e-02,5.604906584855862822e-02,-1.880506289364666664e-03,-7.172045581464162045e-02,-4.249697091501483670e-03,4.193554951924609309e-02,9.701113072661088355e-02,2.172406705741622077e-02,-1.443704109565469246e-04,-4.059684825908361355e-02
-1.019231443420845373e+00,-9.356993677230021067e-01,-8.386025847643653330e-01,3.541281596077591742e-02,-3.496804051861576723e-02,-9.784785941108065099e-02,-2.139764050324311287e-03,-3.054093595778909973e-02,-3.533639824806897312e-02,-1.452858433048366260e-01,-1.318295440330283785e-01,-1.279002851907994343e-01,1.194580231030244466e-01,1.041136068581732799e-01,7.135810469447623205e-02,-1.332976304017307045e-01,-1.524954475704369539e-01,-1.697419189634882253e-01,1.361120038576678626e-01,1.278615490146274569e-01,7.404722572418909188e-02,1.424370909146401021e-02,3.110964871614486232e-02,5.549235228156715327e-02,8.782120491164224774e-02,1.601673527321278989e-01,1.867607503229478105e-01,-9.293841817187759036e-02,-1.375752836670382784e-01,-1.181375906587574243e-01
-1.328746079562098004e+00,-1.122069292218331071e+00,-9.064403974473187464e-01,3.123420903291569961e-01,1.589094897176738241e-01,7.171446777540822770e-02,8.793875444792099982e-02,-4.758263864388546233e-02,-1.996864468527255465e-01,-1.299773767711466521e-01,-2.950660821347408230e-02,5.342403508990940103e-02,9.776022642676510110e-02,4.450334319164905850e-02,-3.826017986208000293e-02,-1.005662215926641512e-01,-3.370360192564780810e-02,2.105122019544826417e-02,9.026036761712395717e-03,-7.201566846459070415e-02,-1.073137870224093043e-01,5.440246976749708169e-03,7.389085587615286388e-02,5.170341217376904497e-02,1.120044188575894939e-01,-3.660658879977150837e-02,-1.051807363800321138e-01,-6.508810842414468334e-02,6.433198182058050274e-02,1.591558792967981417e-01
-1.481885876385009571e+00,-1.373624881441942058e+00,-1.135576069995414050e+00,5.294714512427637354e-01,3.741895270571267140e-01,1.624218072503074983e-01,-8.610520126942493302e-02,-1.009740800680531958e-01,-1.788311238266932224e-01,-6.779392863550885717e-02,-8.839663249226217129e-04,7.380139026465795671e-02,1.435547290652387231e-01,1.931005108423278493e-01,1.497493069139369526e-01,-9.094147917355799304e-02,-1.674136110865027116e-01,-6.181371956448888927e-02,1.094181397952867091e-01,7.925085653680430386e-02,-4.418869107255740669e-02,-1.863398629387531535e-01,-4.764448762439043444e-02,3.515067156058495484e-02,1.269280791821628673e-01,2.923912012604198973e-02,-7.693958085914327609e-03,3.920249896827436749e-03,1.491705512645316242e-02,7.068278770612289146e-03
-1.522737926678337406e+00,-1.385842710763560248e+00,-1.133278967069241805e+00,5.246402043251414682e-01,3.052185840908509529e-01,9.573493336625307770e-02,-5.969027674684392742e-02,2.689043939297490471e-02,-3.275296086541276686e-02,-1.486463669141947219e-01,-5.943466676934439780e-02,3.268092296406658465e-02,2.953197377502208565e-01,1.220041400352823019e-01,-2.467152306745868523e-02,-4.825988769112336124e-02,-3.428587220683146364e-02,1.294956846947173910e-02,-4.135509684311840933e-02,-4.259114912414312983e-03,9.768679832388271755e-03,-1.250405032231188263e-01,2.796704219650496259e-03,6.091013946638182408e-02,1.865135819403889728e-01,4.503291977553246922e-02,-3.941942315885536841e-02,-6.047424817314793477e-02,-1.789299713269418279e-02,1.824562477610525146e-02
-1.344024834693990256e+00,-1.331239120062847059e+00,-1.242859410292826317e+00,3.559252505242060938e-01,3.615301667395823815e-01,3.170740175372668279e-01,6.266041043256508070e-02,3.877140171003947561e-02,-2.805872486004206551e-02,-2.009134325601552029e-01,-2.076174240709141028e-01,-9.831563717643695965e-02,9.886568117322404314e-02,1.281806414963969631e-01,1.099829394256483101e-02,8.337142349592548130e-02,5.561408640976359813e-02,4.843044716526868215e-02,-3.278447694436986519e-03,3.557137513111513494e-03,3.741051621265731320e-02,-1.169209042629349715e-01,-1.093078774675560055e-01,-1.074421970740058185e-01,6.072967879470279884e-02,3.696675735558133807e-02,2.047110877425932507e-02,3.701204599817662592e-03,2.361605359086367539e-02,4.233742986081988346e-02
-1.427176895814457058e+00,-1.226499017044531348e+00,-9.083302402669567455e-01,4.233979780129211723e-01,-4.606873735726731145e-02,-4.559478723806067446e-01,-4.751831478910523154e-02,3.326825527650010272e-01,3.820099521853093094e-01,-4.382502102855039688e-02,-1.384795660654244698e-01,-2.235046862103194643e-02,1.326655326354366227e-01,4.013462806766385227e-02,-1.121589320363480663e-01,-7.976821105139723922e-02,4.171968214105198358e-02,1.232632514975728483e-01,1.518847265423966530e-01,4.247075712425812943e-02,4.563594471362516364e-02,-2.755182838581868854e-01,-1.259352451123064986e-01,-1.077958736844121662e-01,1.996177260868282066e-01,9.760984360084719313e-02,9.353125509084442291e-02,-3.358670229055302908e-02,-1.748289329099651790e-02,-3.774278200969215930e-02
-1.302075851404178364e+00,-1.231537254543217941e+00,-1.108040886996489505e+00,2.950641466268620339e-01,2.582997930106378237e-01,1.953371369037362193e-01,8.258165173125626979e-02,-3.770707705272759863e-02,-8.492181924141620208e-02,-1.578620262443489464e-01,-7.701754978433587862e-02,-5.723251193931677000e-02,1.285090628532794266e-01,7.779712582220571493e-02,2.579644591561136915e-02,-2.756727920853608779e-02,8.795399234853912979e-03,1.085086791887937205e-02,-1.412735621759591588e-02,1.634108130879961124e-02,-3.456957830154915728e-02,-5.142350218719335397e-02,-3.373998970801914826e-02,2.222535549587269232e-04,-2.192183653823842615e-03,-4.291814063170269061e-02,-3.014383175115649405e-02,4.919752099058444933e-02,6.176811009268382696e-02,8.277603069629532739e-02
-1.335533689488952680e+00,-1.004839049317777233e+00,-8.011529442979226090e-01,3.295089798565125072e-01,-1.372048824705877912e-01,-1.989268173357550129e-01,2.648978400405328087e-02,1.095385847950191976e-01,-2.562258441989950092e-02,-1.120148110494730287e-01,2.347880924950725146e-02,7.354922143387683520e-02,3.190596142097641696e-02,-9.002804353989894703e-02,-9.517322785258407192e-02,8.145862732835509878e-02,3.960208168838883630e-03,-5.826357860225662294e-02,9.564841052803087565e-03,7.595431190165156943e-02,-1.000660697347600069e-02,-1.794826416820289317e-01,5.981926008940774420e-02,1.051963660663278455e-01,2.207811447144147343e-01,-1.350905963975154722e-01,-1.531087358630773554e-01,-7.254319901259745351e-02,9.454840746799982043e-02,1.636430468843764752e-01
-1.612724964934394878e+00,-1.576859203824635847e+00,-1.247348339224594316e+00,6.973771091015333878e-01,6.453200309862804351e-01,2.719424891290189716e-01,-1.235121854047784851e-01,-8.510027562247363120e-02,-2.475053109584773869e-02,3.396032194353695854e-02,-3.566494994755479986e-02,-1.175165773283442378e-01,7.528640237014690151e-02,8.520789027327850540e-02,2.970986490692094362e-02,-1.107070706792246673e-01,-3.188309799003228445e-02,1.275297574501274012e-01,1.100791167944204091e-01,2.270173790768726524e-02,-1.145976384156883604e-01,-1.903720315302734334e-01,-5.282832114059945322e-02,1.703925207576141854e-01,1.538968227921265197e-01,-2.045241395244488947e-02,-2.124663263431359750e-01,-3.305883055847028823e-02,4.974235261804522273e-02,1.172089605591007805e-01
-1.541716736170287483e+00,-1.555287543573083298e+00,-1.409667470781875709e+00,6.686300071656623434e-01,6.405128780338446015e-01,4.368010657320651746e-01,-2.757364669595501749e-01,-1.769403520293904020e-01,-8.020920803100288488e-02,8.418657011229035980e-02,2.821338622359630469e-02,-1.167767366197322229e-02,9.382140562573632048e-02,3.516452320971019674e-02,-3.059751896883104554e-03,-7.958243355826292997e-02,-1.693762861131354810e-02,5.680708690106057307e-02,1.086403481637950447e-01,7.163374437384799343e-02,-4.280564034570330523e-02,-1.299578402328021576e-01,-8.798873277332344700e-02,-1.206464875880250420e-02,7.005658494870908859e-02,1.030460653672868043e-01,1.442526644508341227e-01,1.893607171274346327e-03,-4.123222053100682877e-02,-7.826799225244279734e-02
-1.421394150677664170e+00,-1.221553384911577167e+00,-9.798244966341592699e-01,4.309474074070308580e-01,1.894935360647707900e-01,3.359946158538473782e-02,2.418011590364136341e-04,3.054519711839527932e-02,-4.575935071356600908e-02,-7.899064492959453898e-02,-3.726666824561168656e-02,-3.413513235223906289e-02,1.670254423795924370e-01,3.297132753303790714e-02,-8.818087807454157157e-02,-1.349946295508745731e-01,-1.448641154547098894e-02,9.693294993164586204e-02,5.068670519479093889e-02,3.685783495423302497e-02,1.683269475409049018e-02,-1.123587216090181640e-01,-1.364282601992960753e-01,-7.550068345559540761e-02,1.209836327464277050e-01,1.529832202397572449e-01,8.118309336988432934e-02,-2.199094922611086189e-02,-3.297881080428790440e-02,-4.996016249776676597e-03
-1.319729026133792837e+00,-1.170084422887443854e+00,-9.684136795216239380e-01,3.131135715535432462e-01,1.165852553887639503e-01,-2.263349893159623955e-02,7.382052715246220642e-02,5.938187664863577020e-02,-3.493043092735625965e-02,-1.488943844417922602e-01,-3.136245065945893890e-02,-8.621645770135371104e-03,1.270581655839736757e-01,-6.222784343567542772e-03,-5.526876668008169624e-02,-4.425807828443280995e-02,6.517066279374225668e-02,1.226894923580770513e-01,-1.088635304539947203e-03,-8.709029068542134544e-02,-4.781092533812920237e-02,-1.881163986961880419e-01,-1.258018128462490837e-01,-1.039901875029051875e-01,1.632521338569752622e-01,1.922596201793452531e-01,1.230022208432569597e-01,2.495595900674807410e-02,-1.271905659205717874e-02,-3.902161293489120070e-03
-1.510412689165182343e+00,-1.457493975288180144e+00,-1.178928362085915005e+00,6.301880101517134403e-01,5.054266811754857258e-01,1.931638963217001681e-01,-1.632980198455160070e-01,-5.828904118014700125e-02,-4.493773200278404489e-02,-4.373507088890535299e-02,-5.011583492502835746e-02,8.851518000218447368e-02,1.136022384407128910e-01,1.116788582903586145e-02,-1.867125829936700510e-01,-1.228125870451455132e-01,2.414398421805579245e-02,1.079553429685565780e-01,1.486376512966932906e-01,4.236509192394677381e-02,-3.875291459861939652e-02,-9.390172466444574040e-02,-2.669585085166360783e-02,6.786654192006980058e-02,-3.821762197400850603e-02,-1.226632001205963940e-01,-1.629671433509840839e-01,8.022318799011428359e-02,1.323762249906110522e-01,1.549369284113291112e-01
-1.304779193163038808e+00,-1.133947325943998719e+00,-9.429252708265273286e-01,3.411111085791613262e-01,1.594593740089300382e-01,-2.551209777050467077e-04,-5.221588137291999221e-02,2.708971134859776767e-02,8.882294654934839648e-03,-7.612870580090944084e-02,-1.212050489018820509e-01,-8.997728307616330301e-02,1.062559665182111479e-01,2.481008787353851212e-03,-1.022809486469834078e-01,-2.153322994113497646e-02,5.884342688230861235e-02,9.465530307775829599e-02,3.244187435285409565e-02,-7.251316038736412006e-02,-1.166274555541562119e-01,-1.876216415816953365e-01,-7.435778275383024549e-02,2.671094230739636324e-03,1.973778815902176575e-01,1.030213679420824424e-01,1.834640261559035423e-02,-3.477926732929245007e-02,5.123270607790084835e-02,1.276196927556841609e-01
-1.566986838211857691e+00,-1.564850412532174495e+00,-1.374661169043214448e+00,6.586661516150305040e-01,6.502679260124667460e-01,4.118215946657739490e-01,-1.586107233930037219e-01,-1.459925457770383794e-01,-8.087085029885034138e-02,6.282014303019042845e-02,1.375903356764865935e-02,-9.690568297082385874e-02,3.128163673134831679e-02,8.927356125715361912e-02,2.057161537301537280e-01,-3.327727860373188434e-02,-1.914798889436019821e-02,-6.962677306858218972e-03,8.676540161121606975e-02,3.100445334686431631e-03,-9.769941004102505877e-02,-1.363573677521898730e-01,-3.086900463031732461e-02,3.991108957972225313e-02,3.862411031019891139e-03,-6.372238532501223185e-02,-4.524612977914213574e-02,5.203811538757797256e-02,6.833334037843939723e-02,4.498952963829176699e-02
-1.538972050688484527e+00,-1.474849215568651450e+00,-1.216554725650571767e+00,6.602267903917357073e-01,5.406621490623085835e-01,1.771381554780892542e-01,-2.575226682820782043e-01,-1.857591358769078993e-01,-2.960095049132829143e-02,6.762739340271352317e-02,6.808975872331847479e-02,3.846037850500391014e-02,4.173335140163733636e-02,-3.482165257358943444e-02,-8.458713533057685141e-02,5.851950613859117911e-02,1.353476167535678509e-01,1.381940856444530130e-01,6.805624158821836633e-02,5.055491133463696496e-02,2.737061163198782621e-02,-1.883239318648879390e-01,-2.200536415687863734e-01,-1.955179050652359196e-01,5.562377004940672470e-02,1.148800347134261296e-01,1.400810207519568584e-01,3.330493697654169499e-02,6.138240649912975536e-03,5.108003156661657454e-03
-1.494686415291237358e+00,-1.378168677595850156e+00,-1.131581417730911365e+00,5.961388669818119546e-01,3.826259566006254831e-01,9.293306106418493251e-02,-1.247558624735326388e-01,-1.145674856145844842e-02,9.886366712149931638e-03,-9.133193724075992781e-02,-7.412999415374720014e-02,-1.071782481606705500e-02,2.213351531245129900e-01,1.922360510922730414e-01,1.064572395367824886e-01,-6.314410428439932998e-02,-1.393406978476669500e-01,-1.014566831233327526e-01,-2.078666363299933734e-02,4.623850181365693479e-02,5.647145287758167237e-03,-2.097976973140997514e-01,-1.223436952490898622e-01,-1.013884912038755942e-02,1.992658381510545584e-01,2.326289133945722010e-02,-1.046765577031378569e-01,-1.209623984848596373e-02,8.118252369848272254e-02,1.437407338925270339e-01
-1.627688696041662331e+00,-1.533619461720845178e+00,-1.386432126003374732e+00,7.313309043280419308e-01,6.164577773296270324e-01,4.871724116023294915e-01,-1.404109217611000104e-01,-1.306114151573874171e-01,-6.568965902929981004e-02,-2.377186134088454111e-02,-4.770143735485936343e-02,-1.339822631089273297e-01,8.844115756414862306e-02,1.004763279547270100e-01,6.374573218336225533e-02,-7.318873534488146149e-02,-4.241353833131967371e-02,1.602966808835199625e-02,9.829003372504085956e-02,7.812557987782675628e-02,-1.273689637698304476e-02,-1.585530732365492967e-01,-1.759024557653837417e-01,-1.390924489913002438e-01,1.197345267681508008e-01,2.170650211417284314e-01,2.575481178936116500e-01,-1.396370682294288679e-02,-8.176568941146122871e-02,-8.648829160594521948e-02
-1.597280461115419659e+00,-1.582011954893861816e+00,-1.381060095555373790e+00,6.917913376822508731e-01,6.479606841798610795e-01,3.563157483757384281e-01,-4.811000028365569614e-02,-1.716042699636907698e-02,1.321556555850534297e-02,-1.930565050316282727e-01,-1.856847657628594717e-01,1.173088973894088720e-04,1.168524754404775962e-01,1.137123600719124467e-01,-2.354102326178840465e-02,5.229343939842384659e-02,2.503820205350133082e-02,2.893372182874239668e-02,-9.947309965769068549e-03,3.443585740993809763e-02,4.266594030170928198e-02,-8.692966242795466258e-02,-1.225953141427598564e-01,-1.343149454343447458e-01,7.712205981466917215e-02,8.433825110382059398e-02,6.422092174178234414e-02,-2.448108448561477947e-03,2.168109746341662179e-03,3.353105015977358300e-02
-1.625448655479587057e+00,-1.654274557398808909e+00,-1.494405890107011192e+00,7.338263712842904019e-01,7.815341257816948994e-01,5.229906232941666788e-01,-1.299715209987398201e-01,-1.590735918026517370e-01,-5.685938996783179711e-02,-3.227673018629762577e-03,-4.440852226215393980e-03,-4.229132986539282935e-02,-2.765965150463426184e-02,-2.465782230170637107e-02,5.258484310174930954e-02,5.333221427060757386e-02,9.025672552728687681e-02,1.054929363492293493e-02,1.003493833724051522e-02,-2.295841443183985198e-02,1.060468361730834835e-01,-7.420215122336154545e-02,-9.135001481633810150e-02,-2.680274798431022121e-01,6.501816301526854025e-02,1.083560548254055428e-01,2.117040654839778546e-01,-1.415458758941781246e-03,-2.317545299627135624e-02,-4.217121724886585543e-02
-1.294316812406426376e+00,-1.246133676373493149e+00,-1.078094202170312377e+00,2.660597223602041983e-01,1.933047584560833587e-01,6.835028681618487978e-02,5.027828910724057437e-02,8.560174538003799405e-02,7.900520258600288170e-02,-7.221166449474664129e-02,-1.199156364553004422e-01,-1.750009445634450878e-01,9.531119808516821945e-02,1.386615020946113941e-01,1.363105874934650574e-01,4.707852889405266666e-02,3.162474742865694494e-02,-2.905977944521835610e-02,-5.856844034837842272e-02,-4.279121988769959972e-02,4.126356176567273076e-02,-2.036081064614027047e-01,-1.952577117488241421e-01,-1.444354254160249151e-01,1.405846360322681454e-01,1.015122197239212015e-01,4.371054464478120460e-02,2.949178979481366716e-02,5.346452336502401093e-02,5.800516855353691353e-02
-1.620286390110333263e+00,-1.625506000578419652e+00,-1.512603104543311927e+00,7.166724217078844772e-01,6.759121905971864352e-01,5.214987414071372562e-01,-1.416047304812034779e-01,-6.540308542928997826e-02,-7.812129877820736361e-03,1.192702896891970066e-02,-1.493554513765547528e-02,-5.228021293583139800e-02,6.210969185553196631e-02,5.630510593366018501e-02,1.406505603430319440e-01,5.271062078730801709e-02,5.647923606048767947e-02,-7.707891947587433568e-02,-8.046402424709729606e-02,-9.718968655635180920e-02,-1.749866726617037294e-02,-2.493742208504557550e-02,-2.937104523371170811e-02,-9.988877507642245079e-02,-3.047378283499230928e-02,1.947557847353949267e-02,1.431536130531476936e-01,5.461319334116823687e-02,2.441845492855535329e-02,-3.804896646783097885e-02
-1.729421115059015746e+00,-1.773703705363155692e+00,-1.642926294484528871e+00,8.814327988329364594e-01,9.137386886249158069e-01,6.558800941545633867e-01,-7.429503873901087407e-02,-2.983271806417047908e-02,6.412429468396761700e-02,-2.254960729534072894e-01,-2.862382405766355498e-01,-1.598313593930006937e-01,2.557279650572923391e-01,2.901093825277223925e-01,8.647023854043378588e-02,-1.803871931173574861e-01,-1.551068689391476574e-01,3.566288326872900372e-02,6.468790908576292631e-02,-2.882044077711688398e-02,-1.201208445127525115e-01,-3.115163487765701400e-02,9.017652043547833007e-02,6.120668766944847156e-02,2.673413299040511629e-02,-5.867356297581965280e-02,2.948115898517761346e-03,1.253076439764163642e-02,3.865786207682991860e-02,1.681056352983265750e-02
-1.656304028249668603e+00,-1.659482756609472309e+00,-1.527476349473231299e+00,7.532656696986322897e-01,7.416177233026171045e-01,5.480839743386742846e-01,-1.757265843466189192e-01,-1.664670613555994938e-01,-6.839416560799671529e-02,2.252406779771196077e-02,1.273929788482954656e-02,-4.832359057509988398e-02,1.624846277035035258e-01,1.910435140343373916e-01,1.587532456637970046e-01,-1.490970159740944156e-01,-1.738981498156719763e-01,-6.920883892311037455e-02,7.345787772048596731e-02,1.080511430326932948e-01,2.430838861183098540e-02,-1.122072699153913999e-01,-1.516155430832128725e-01,-1.383235054323067037e-01,1.324343579825296713e-01,1.297715369400923580e-01,1.182292038720824251e-01,-5.056725910510875832e-02,-3.155100172265657560e-02,2.487935489337094429e-03
-1.399005719337086395e+00,-1.387194129688937183e+00,-1.280696199160354709e+00,4.174637364484767299e-01,3.780537205224578368e-01,2.767190237684473142e-01,-3.982147095261995284e-02,-8.804107339224107390e-03,2.728506799147125544e-02,6.495350696693050034e-03,-4.672034408256595106e-02,-1.171779019051225890e-01,4.200458419297833229e-02,8.807477448986709978e-02,5.255385988857896873e-02,-6.675456445854080489e-02,-4.672216508794280881e-02,2.943920386322627578e-02,4.256886965938327938e-02,1.967186663569799043e-02,-3.669763913561874952e-02,-4.891565390001551689e-02,-5.666802249003970865e-02,3.966229295334092186e-02,3.687113196490694744e-02,6.982419864641274676e-02,-7.447086546603677581e-04,9.237225216519822854e-03,-9.417286459298474660e-03,9.725872895354365291e-03
-1.518469063596117774e+00,-1.551722604764958380e+00,-1.475735115985397083e+00,6.241430742729123793e-01,6.508283214890516755e-01,5.410441128644601916e-01,-1.535460159917638179e-01,-1.300227612826481693e-01,-9.127022850466337545e-02,-3.842235923722990554e-02,-5.859004663186841155e-02,-1.258094842426482618e-02,1.113468074061056551e-01,1.159788653780118167e-01,6.871532066813042239e-02,-7.844421226961932614e-02,-4.694636390072445126e-02,-1.325175619069906066e-02,1.001134627233247337e-01,4.697643222586249390e-02,-3.220818099301032966e-02,-1.792027304212984729e-01,-1.651038769750083623e-01,-8.876926964269926668e-02,2.415255517155242559e-01,2.445271747464725642e-01,1.603421327604184210e-01,-1.088724451781694080e-01,-1.057949557918696493e-01,-5.620544869801628873e-02
-1.701361959187598583e+00,-1.608168534568885200e+00,-1.307143155916504540e+00,8.690124075663931968e-01,7.471021865929522443e-01,3.429863583555093354e-01,-1.259063948736783012e-01,-1.333742836128152809e-01,-8.024186451495565753e-02,-1.945147272474332389e-01,-1.745639419949874260e-01,-5.501943036344458804e-02,2.476664843963400364e-01,2.762586964107935916e-01,1.322027457035111209e-01,-5.870715727630294867e-02,-4.727086653936555388e-02,6.213588649556887195e-02,-3.779259711806848970e-02,-7.778745161845014577e-02,-1.139451139018288484e-01,-1.953910474482927484e-01,-1.115090445712022815e-01,-4.477185204591094952e-02,3.314570341062168524e-01,1.858231623122007514e-01,3.324798011959159000e-02,-1.343339187454694883e-01,-5.639369295450657321e-02,3.062292068374447562e-02
-1.298973499253865294e+00,-1.269538972758355255e+00,-1.209515931382942888e+00,1.734712913335403062e-01,1.591815866631925147e-01,2.151854221989730198e-01,1.452698591418315199e-01,1.511586068314944298e-01,5.139744710735494326e-02,-5.455199545363685620e-02,-7.684916523303597646e-02,-1.104902358885782865e-01,7.401231834016169797e-02,8.656483644548677858e-03,-3.031131772107406586e-02,-4.459443412367514875e-02,4.292923111590497137e-02,1.269967613371243975e-01,8.871258497476518234e-02,4.716709619072780024e-02,-7.170833298593114191e-02,-1.609860459132342325e-01,-1.864926113219478598e-01,-1.414168568489612421e-01,8.416038306473076769e-02,1.190420554337548453e-01,1.621324602276391913e-01,-6.411089092987752071e-03,4.822592153675680365e-03,7.781523605944041730e-03
-1.431734610895619930e+00,-1.310385879127269115e+00,-1.043708695806767395e+00,4.366841720030332219e-01,2.864662785324974537e-01,7.716910484486799726e-02,3.518807049028619370e-03,6.325183770987927168e-02,8.856779667010719614e-02,-9.897370808904445982e-02,-1.594199649607894176e-01,-2.556044113685490560e-01,2.357909660575882235e-02,1.133030497470426667e-01,1.177516948185794027e-01,1.308070044891469219e-01,-1.836634372039630536e-02,-9.898150064452929109e-02,-3.721820334939542063e-02,3.641218981750923844e-02,7.492363675936643264e-02,-1.495026366980503618e-01,-9.437060563476201702e-02,-2.097759047904246971e-02,1.695379808322253767e-01,6.820218548140077885e-02,-2.741823156114429894e-02,-4.652642584413357874e-02,1.502100843078654942e-02,8.834998144335241832e-02
-1.323480414840535246e+00,-1.185689898961131084e+00,-9.420766219609179037e-01,3.328592495824245212e-01,1.149221109650450934e-01,-9.956672464013886781e-02,-1.066488872487629004e-02,7.380357396571178563e-02,4.014209222167422486e-02,-1.231623199380845191e-01,-1.372897703630689692e-01,-1.007359093904011821e-01,1.418844401303428482e-01,1.611394730019102273e-01,1.469380468239326332e-01,-1.003853964083946393e-02,1.912819657385011335e-02,-1.799456742782801211e-02,2.662960010091385346e-02,-4.291173347901250379e-02,-3.414885632248085279e-02,-5.128025974051240998e-02,-5.032413220037562640e-02,-3.458264704509727422e-02,1.821227707590604775e-02,2.123758919345715770e-02,-2.085160762945512114e-02,-8.710272411387085228e-04,2.607366656827277834e-02,6.296890171195866637e-02
-1.265727749815303893e+00,-1.234470464327177774e+00,-1.129098719642332105e+00,3.261786435181263655e-01,2.198777391002240122e-01,8.857091459881444306e-02,-4.991337955970183426e-02,3.825881822145506955e-02,1.069913776918681864e-01,-1.425677780465302025e-01,-9.739345027582112235e-02,-3.324237497932883839e-02,1.738333126556560471e-01,8.583976700870803167e-02,-3.701568148812511144e-02,-3.814778355080401806e-02,3.089751847386592275e-03,4.132435116604633862e-02,2.325920176959880500e-02,-5.831525706029753488e-03,-8.342139949363846368e-03,-1.235970379140622355e-01,-8.978813393454866676e-02,-1.245541402796782882e-01,1.259881869208716310e-01,9.001702515440834773e-02,6.782074935638426894e-02,-2.921088090102949564e-02,-9.536789665312109601e-03,2.758757337466784254e-02
-1.596245611125828745e+00,-1.579485036282888721e+00,-1.470963876919121338e+00,6.204327230501722745e-01,5.695552637508156657e-01,4.323209646483384128e-01,1.145652678368554341e-02,3.593370254047272699e-02,-2.540979265114104435e-02,-9.167543866609484393e-02,-9.890460124661878960e-02,-2.133020039027769266e-02,9.900522070520831330e-02,1.944419070940746341e-01,1.575050776671207964e-01,-1.373917124477577918e-02,-2.080029867089706330e-01,-1.536402190427123837e-01,-7.811729082713511629e-02,7.001416272681783293e-03,1.676160574172019802e-02,-2.742934076847452704e-02,1.231174454790398831e-01,6.625381021321180564e-02,7.320734461187716757e-02,-1.136433203387266916e-01,-8.451029315098226857e-02,3.331827590847991506e-03,7.017907314614120484e-02,8.320625607659057343e-02
-1.521419687251237773e+00,-1.494966925651941336e+00,-1.284454750159589764e+00,5.574774751120410432e-01,4.955079426537053466e-01,2.411399801846096091e-01,-7.133531978959997688e-02,-9.657913326015499234e-02,-6.450770466847870199e-02,-9.733003104847637310e-02,3.392233014481298853e-02,9.213951354778451841e-02,1.829117239673497264e-01,8.583728334814244576e-02,7.136864749141539309e-03,-6.216314375891614924e-02,-2.316516673664131484e-02,-2.731898050276927118e-03,1.130732182817289627e-01,5.495293581937400057e-02,-2.212730192228371320e-02,-2.501467255606364404e-01,-1.386063071945299874e-01,3.277636471414013125e-02,1.574959399195769993e-01,6.172194633203326869e-02,-2.145503438112608685e-02,-8.362117179294973474e-03,2.153308360046296902e-02,2.217665603420965192e-02
-1.580952577397736425e+00,-1.590509322756479715e+00,-1.342688341000662477e+00,5.930036934340646715e-01,5.880341905420518600e-01,2.843067488344847016e-01,-4.183475680918780776e-02,-5.418761729472577199e-02,-7.890989679547738556e-02,-6.901158217466353550e-02,3.432990923610530765e-02,1.684547797038699612e-01,1.452299763478286931e-01,5.390063231017737377e-02,-3.625456193261328980e-02,-3.067461881509262953e-02,-8.446835639669229845e-02,-3.693042636071595941e-02,-6.031797636172853139e-02,6.429548211287337833e-02,4.736959618290863261e-02,-3.706324783225285746e-02,-1.315726730017894308e-01,-1.721058292222827635e-01,7.058037513449620659e-02,1.261066721052686301e-01,1.397749225971689491e-01,1.137456096699774807e-02,-5.675339432905726622e-03,2.713074357891417585e-02
-1.454086959652936883e+00,-1.431918812464134216e+00,-1.306031341865435458e+00,4.432362120217883117e-01,4.423829493080206343e-01,3.818625776062414268e-01,-1.290935420750130916e-02,-5.582706872690187255e-02,-8.999187803223601678e-02,5.779990717499724345e-02,3.800036271808888977e-02,-7.639963675840344415e-02,-3.666409048090263356e-02,-4.702439676913963348e-03,3.445519665406801546e-02,-4.046023523528471250e-02,-4.321928349161427430e-02,-1.093346945789396701e-02,7.043436449334157523e-02,1.014746629911441045e-01,7.200820138840319240e-02,-1.224868059474288132e-02,-8.810507123724370393e-02,-9.789891607379595795e-02,-7.319049017547830591e-03,7.356827991540396128e-02,1.003411108951089148e-01,-7.598553831995930562e-03,-3.153201499581811257e-02,-7.330035180746193556e-03
-1.593753860721233151e+00,-1.584064956305437422e+00,-1.396992656751449902e+00,6.887598647778109262e-01,6.578476039814219467e-01,3.853353310548380817e-01,-9.460638043767673200e-02,-7.662757744005506411e-02,-2.358848022732799171e-02,-9.344497077862938539e-02,-8.179885508765225022e-02,-9.689262572155256034e-03,1.533783188704911926e-01,1.595350434735294531e-01,1.278811602325462538e-01,-1.606234119991097331e-01,-2.093463503772591550e-01,-2.158871153666906406e-01,1.564269080284564906e-01,2.190560775388550596e-01,2.011624784692604972e-01,-1.339190913454668397e-01,-1.890776110907396168e-01,-2.349114842405141401e-01,7.908154694075641977e-02,9.426778180384817740e-02,1.494878053551298991e-01,-1.048921454495350394e-03,1.039846483899888215e-02,1.729804059025387766e-02
-1.539747187151674135e+00,-1.554369954603673554e+00,-1.459011891328523269e+00,5.423016232557150706e-01,5.484028310861766009e-01,4.657023319527368033e-01,-2.547914006787729314e-03,4.880682171036238026e-03,-6.044145255344411660e-02,-5.029958139631458824e-02,-6.837532408787452831e-02,-5.301399891766063466e-02,5.593709547387339109e-02,6.599745705942136609e-02,1.239090319002123242e-01,-6.375605019454783084e-02,-4.403442707404465334e-02,-6.247180268661784580e-02,1.772846378423636737e-01,1.770617226829695467e-01,1.123406586104821886e-01,-2.437694209185359562e-01,-2.215362997936591860e-01,-6.276373541627379427e-02,1.402145256526801664e-01,7.322795301587162187e-02,-5.548127828565457831e-02,-1.537963528390697172e-02,1.892243824137635963e-02,5.132987139639875324e-02
-1.645551987854972920e+00,-1.624583614517320473e+00,-1.526187655130891718e+00,7.787920338000757781e-01,7.049728084300177500e-01,4.781091472803483122e-01,-1.421872997323501697e-01,-1.046012630001591226e-01,3.960989588296354169e-02,-8.232808350192337421e-02,-7.303990796086087811e-02,-4.439076518705182411e-02,1.744716311411506071e-01,2.089175878327452773e-01,1.013032524867739231e-01,-1.210320287785665028e-01,-1.529265375085389345e-01,-1.264554272785134992e-01,2.989475959962208454e-02,7.565173208540805494e-02,1.787535869787081066e-01,-1.531634309379019121e-01,-2.658407051641148433e-01,-3.543151402678982875e-01,1.653911887856857610e-01,2.776815466092006357e-01,3.705060344058496158e-01,-4.001726933930391944e-03,-4.600580991860458296e-02,-1.168090154409961584e-01
-1.569411961577052761e+00,-1.601700302171200629e+00,-1.469278128585674636e+00,6.157514709385075724e-01,6.509457797650095578e-01,4.571750252734851916e-01,9.462055022395504320e-03,-1.103984566528358816e-02,-5.373352927002307024e-03,-2.577538528903738912e-01,-2.406261680399365277e-01,-1.105791299644049291e-01,2.632388268515191143e-01,2.764845952187460210e-01,1.846111987939329790e-01,-1.238977707774445436e-02,-1.470525886964450975e-02,-4.860105273044913049e-03,-3.626627429202965852e-02,-3.920300499321602294e-02,-2.176190058442352415e-02,-2.283296149539726372e-01,-2.202072513360989470e-01,-1.917253323561494138e-01,1.625925622173129415e-01,1.446003392395960874e-01,9.566573795091627697e-02,5.346354745176007395e-02,5.569430712915964671e-02,6.622606805015823772e-02
-1.582869933802205420e+00,-1.580917835496276735e+00,-1.417870523291192120e+00,5.684525669268494230e-01,5.530698800392498393e-01,3.749776099709298816e-01,6.674778511553028371e-02,4.306315653457175319e-02,-2.500243527146317479e-02,-2.137442840933614085e-01,-1.643236960600599761e-01,-3.626884085795702845e-02,1.705913761339661883e-01,1.903993078576103337e-01,1.584965899420755775e-01,9.872325918412040366e-03,1.275683420439132493e-02,4.593444142422813820e-02,8.158814149907661628e-02,3.315758971539872757e-02,-5.964550939795189299e-02,-2.025740742718709075e-01,-2.360360725720173913e-01,-1.791676291239104601e-01,1.106324114382572499e-01,1.860893359921054202e-01,1.693194854620942991e-01,-8.462701945371407450e-03,-3.710378021146972655e-02,-3.070174891751381585e-02
-1.733471895499381965e+00,-1.723452154188349850e+00,-1.496624119972894240e+00,8.708842820707144439e-01,8.314113529857691809e-01,4.297214560485530521e-01,-1.152232174756118305e-01,-9.054855404876249736e-02,7.898729302209939185e-02,-7.414796764835866749e-02,-5.900479994255751481e-02,-3.316141809905864823e-02,-1.934506956749527246e-02,-3.458592335051907662e-02,-5.979955505689126677e-02,3.693677032260597043e-02,5.490243745068607711e-02,7.904805175245394055e-02,9.582737789548005647e-02,7.097367393257268675e-02,3.530024725658126132e-03,-4.270267012038705956e-02,-2.974338290219257636e-02,-4.855184405126600211e-02,-7.015288020049120776e-02,-8.168319768172641049e-02,1.013517495636177129e-02,5.174689516575914361e-02,6.199719139853807764e-02,3.684027522944503114e-02
-1.468583598671926449e+00,-1.508616862811780646e+00,-1.438414999533814909e+00,3.457248658871500124e-01,4.577952834231554524e-01,4.800185274533267377e-01,5.823329440999955309e-02,-2.406820502536280437e-02,-1.172143630937460823e-01,-9.135294243689892624e-02,-8.802905445610929858e-02,-6.330359751905241875e-03,1.837595205481097893e-01,2.177141693926321897e-01,1.241856187146298807e-01,-1.779654390042121476e-02,-7.523924339128254535e-02,-8.257391423700449762e-02,1.098342679425316909e-01,1.233656343061268340e-01,6.674412536004617480e-02,-2.419716481461988145e-01,-2.276322715277662445e-01,-2.178224250283762042e-01,1.596999604142446405e-01,1.507340456094781178e-01,1.859367526034267637e-01,-3.732708254090628258e-02,-2.585061211816696430e-02,5.563110216431299548e-03
-1.214457629310008002e+00,-1.180591122039363894e+00,-1.123633762005400660e+00,2.053246839269605162e-01,2.340564190612424156e-01,2.230045405489572974e-01,6.219452365112097814e-02,-2.633643170197538103e-02,-1.097056478646978583e-01,-1.772193384913264280e-01,-1.825707798468113874e-01,-9.841313532478473958e-02,1.353298967716144718e-01,2.143827597517906081e-01,1.632600751452284171e-01,1.854506321018508513e-02,-7.440866191209745406e-02,-1.376164181569244915e-01,1.375341889033109867e-02,3.986705253690537437e-02,7.149601910041103459e-02,-1.833140393004324964e-01,-1.540537130545319155e-01,-1.543895952198978683e-01,1.916381542078978428e-01,1.548974310545380706e-01,1.599993893754004803e-01,-5.172053226139634863e-02,-2.518625335462300330e-02,6.054751833057702391e-03
-1.333430367958484908e+00,-1.283878832076857934e+00,-1.034626174508034513e+00,3.001552861857513244e-01,2.567335529895248269e-01,-1.700466623790087423e-02,2.031004814449855270e-02,3.373301912217362142e-02,7.799909595238689597e-02,-1.334579480789510053e-01,-1.430808298404797341e-01,-6.988275894713888436e-02,2.062343743540075436e-01,1.560561518709988604e-01,-6.233936418946038616e-02,5.048871401264888592e-02,7.022027018480962723e-02,1.934999893868405429e-01,3.041280779114043792e-02,7.248191144685053183e-03,-1.202246664594858461e-01,-4.344425450075608541e-01,-3.390947973959953510e-01,-1.110926209665292208e-01,2.738897703607064971e-01,2.066003517045094939e-01,5.558465854475162782e-02,1.994620544503656473e-02,3.554653993265301237e-02,8.814319604251692752e-02
-1.540443903825184035e+00,-1.514876086534693300e+00,-1.319068525553699800e+00,5.874429272143151248e-01,5.511034524662606904e-01,3.447481419386916324e-01,-1.200948848151868059e-01,-1.050233004334468201e-01,-6.557654452868544315e-02,-1.173695133393120107e-02,-4.357563836823712816e-02,-7.140373866205727837e-02,1.446769387656544614e-01,1.841688267817323255e-01,1.220528366439008194e-01,-1.357563509034552529e-01,-1.401663795074759855e-01,-1.054915000504499933e-02,1.238874344325454208e-01,7.207764040202671585e-02,-1.062380335814768623e-01,-1.232516247311647856e-01,-1.103094465004506863e-01,-2.533774901030332732e-02,1.150210709993382818e-01,1.812088160858630059e-01,1.726312148675016589e-01,-3.952444276063644263e-02,-7.444738403157781514e-02,-4.117152678190832277e-02
-1.307578585964720652e+00,-1.292065043394236223e+00,-1.235608064231896952e+00,3.123192746038068734e-01,2.994713715966216827e-01,3.179499742190238232e-01,5.324648338600568298e-02,2.581664019876879490e-02,-7.574401135079164571e-02,-1.094667431625360871e-01,-1.287359475399421083e-01,-1.123651479953016868e-01,1.194230775285528567e-01,1.404788059920561438e-01,9.940033988389924968e-02,-4.914815070675471881e-02,-2.370956765540338518e-02,-2.592549907346582833e-02,1.485511477026927284e-02,1.127304146533753861e-02,1.292230640776294986e-02,-7.887709449089498615e-02,-1.299930224373803123e-01,-8.532647138091839500e-02,4.292753871253037617e-02,9.817922317165062029e-02,5.618159687314715905e-02,2.384274755857208883e-03,-6.507341532557090477e-04,4.856731516142876598e-02
-1.272516201897129884e+00,-1.269001517304202631e+00,-1.227358067866972213e+00,2.166181874652461925e-01,1.867367250838834758e-01,2.290986455436473945e-01,7.869602111163126468e-02,1.911037448091836011e-01,1.544064466261645119e-01,-8.301875860661818429e-02,-1.962694973026733736e-01,-2.801186930565053856e-01,1.093947957942191795e-01,8.559939634936489239e-02,8.422300727280930543e-02,-2.058066793487321050e-02,2.139066414443173414e-02,3.959860076266824569e-02,1.959418272365474542e-02,9.137526656414485249e-04,6.732040788410050686e-04,-2.548206740628815026e-01,-2.090184797304830977e-01,-1.830066664254518249e-01,1.506494714484856723e-01,1.449931471284719997e-01,1.402296929765426137e-01,5.611661194428402971e-02,4.363881320358810323e-02,4.230545898794380727e-02
-1.323393848303796139e+00,-1.303940411257936915e+00,-1.175775627146833369e+00,2.483723464484156318e-01,2.335573668311284046e-01,1.432915202577835778e-01,4.672716669932079625e-02,6.432209753964641952e-02,7.544446926518397212e-02,-1.185152719729400637e-02,-7.405444617381237715e-02,-1.393569992267990609e-01,6.058896937092086293e-02,1.164228351610932383e-01,8.341239618180153192e-02,8.906461692117539908e-02,1.425000148391634275e-02,1.652176293396874843e-02,-1.293354343969737863e-01,-5.346566454081948944e-02,-1.901210195064376857e-02,-1.406056755469770603e-01,-1.232806003357090202e-01,-1.459672521890494901e-01,1.605581989945142063e-01,9.802565922880873694e-02,1.271632140587156679e-01,-1.410829539662334458e-06,2.824645800739675888e-02,3.432422515811456992e-02
-1.348119515679927716e+00,-1.305745854738059375e+00,-1.126345391302533416e+00,3.177525872601693058e-01,2.723742903547173300e-01,8.955182847905075738e-02,-1.274985160800051233e-02,1.639060137429821989e-03,8.433948326645453186e-02,-2.533859097194422760e-02,-6.553599660839835861e-02,-1.726014250544110618e-01,8.234262360633315403e-02,4.438564881108425508e-02,-2.984290969842472163e-02,-8.775910715221540981e-02,-4.086171391225737991e-03,1.040446751045031037e-01,1.616809944935118648e-01,1.499280623137561330e-01,5.152827261033978562e-02,-1.771717209737656840e-01,-2.006131856120876300e-01,-7.633832337822538117e-02,6.280255076434453076e-02,1.151500937321751489e-01,7.327916900463286864e-02,2.673463022489304050e-02,-7.367135058759495883e-03,2.462003459801953825e-03
-1.631609860754248631e+00,-1.615825946875849128e+00,-1.336193326135945325e+00,6.246686405536039377e-01,6.114119150200281183e-01,2.548484790441654102e-01,2.877154869312429503e-02,3.162950532014525279e-02,1.354912072669748335e-01,4.188584083578899414e-02,-1.395234657825021943e-02,-1.359601175479996371e-01,-8.115715518260177563e-02,-7.992718355482689727e-04,1.381926972491164252e-01,-2.267817836075016261e-02,-7.851009395075156383e-02,-1.138887991595897153e-01,2.777370592600002935e-02,7.704642413488964336e-02,2.485158577501368760e-02,-7.958421959775249799e-02,-1.547345199414267292e-01,-8.669967839058670411e-02,1.460355881620340468e-01,2.103290014016474530e-01,6.848940710716061586e-02,-5.383391539262400577e-02,-6.637431643798127889e-02,5.097280312105560707e-02
-1.434130968886394575e+00,-1.398960832729492454e+00,-1.206251705450106071e+00,4.947474838040820666e-01,4.032623314579679152e-01,9.589886363643849998e-02,-1.130304138249250412e-01,5.717776897879717560e-03,1.687529101667541165e-01,-7.176017362951504774e-02,-1.561608804931883809e-01,-1.480219977986074742e-01,2.207185757052244901e-01,2.484406688514167738e-01,1.254705846236716660e-01,-1.606674861122774911e-01,-1.524070678974518978e-01,-4.768154467392555357e-02,-2.448256333164474524e-02,-5.496435310555496806e-02,-5.284013610361476543e-02,7.232186204069327232e-03,2.742946565294453187e-02,-2.389366604634618474e-02,6.163168240685062971e-02,5.030965503834866626e-02,2.396945935374041048e-02,2.000117954415620014e-02,2.752915344425710051e-02,6.469732320378787649e-02
-1.401140504778592533e+00,-1.365474434379736701e+00,-1.206033543326531676e+00,3.952302555639770065e-01,3.831366252357085167e-01,3.302392619559619269e-01,4.365007897771751647e-03,-7.499256187340659630e-02,-2.769573509476979667e-01,-1.621969535128925388e-01,-1.186538958204931549e-01,7.329612557555635621e-02,1.766957354316249507e-01,2.000245565050499663e-01,4.441280847948901600e-02,2.761131857386719263e-02,-9.363042166415192630e-03,4.762688592281077993e-02,-2.404792938286259840e-02,-1.104003870921882458e-04,-1.152247053194138671e-01,-1.790289116340536557e-01,-1.343582319198786401e-01,7.892774186781242873e-02,2.398950558378900588e-01,1.693808371484498698e-01,1.793568412358925723e-02,-7.718178398185802924e-02,-4.944067981062853084e-02,5.869715567319189198e-03
-1.295746152780964833e+00,-1.203115486220392327e+00,-9.898367478742914338e-01,2.399100821474138834e-01,9.438713077836710652e-02,-1.072279406317424855e-01,3.319514862569963864e-02,1.214834812695522598e-01,9.211667850899679655e-02,-4.852166763711186076e-02,-1.207074575378075942e-01,-7.537834295071356439e-02,1.207982856171215674e-01,1.845713658907034982e-01,1.052733566149776645e-01,-5.019649921731323544e-02,-1.510096122100971494e-01,-5.801151169318766176e-02,6.852569852328313504e-02,6.984761809321372861e-02,-4.054593269325286464e-02,-2.021386252317671772e-01,-8.615458708044382991e-03,5.974752417210753980e-02,1.846428656033823335e-01,-3.360027632308147660e-02,-6.839522591757613013e-02,-5.036722707905406243e-02,4.685778296641378293e-02,8.235227718859772228e-02
-1.379732725259807058e+00,-1.361987676932145064e+00,-1.185798168566915889e+00,3.684827854137386893e-01,2.859220875245753191e-01,6.258457987560269060e-03,-4.725480702417422796e-02,8.868516596720132927e-02,3.088910925288350651e-01,5.046411540156427178e-02,-5.061927356306784170e-02,-2.361251032210842649e-01,3.036401297726021992e-02,6.262849768857009503e-02,4.043963477327704864e-02,-6.627583578421013255e-02,-8.199167573388277397e-02,7.046974946147727126e-02,3.136542416735552292e-03,1.474908123531136830e-02,-2.601398087224380748e-02,4.374408574451587456e-02,7.055991300021402512e-02,-4.045339098045953180e-02,-1.433477313416015378e-02,-7.620085191585394824e-02,1.965511350894751791e-02,1.158214875887739019e-02,4.838305204990542285e-02,4.274854107956554267e-02
-1.390884139625432558e+00,-1.422197397926955098e+00,-1.324631416113486448e+00,4.294385629816683814e-01,4.480312010638801135e-01,3.763841616390274925e-01,-4.523911455974835572e-02,-4.036213839689333643e-02,-8.836409022942420810e-02,-2.277080626324544110e-01,-1.768034022563692576e-01,-3.850717577793123791e-02,2.939195667036794135e-01,2.412111662852372274e-01,1.244052544847806946e-01,-1.346900326209992012e-02,-1.432555436088996798e-02,-7.390409355705125638e-02,-4.820861998939072156e-03,4.289857977889231788e-02,1.449530721579843362e-01,-2.775722524078809150e-01,-3.130932595342424962e-01,-3.716297499200367782e-01,2.293401637184646624e-01,2.291022353836567327e-01,2.199810677187463703e-01,7.133115374700150016e-03,5.638720910689930428e-03,3.137936435533442148e-02
-1.486078516583388076e+00,-1.484401414365684069e+00,-1.398277357449357439e+00,6.131829349547068819e-01,5.962247286500075294e-01,4.380461125953376000e-01,-2.416346047580293643e-01,-2.277935914092353853e-01,-1.325949909240042024e-01,8.362078592423639878e-03,-4.363977405542240895e-02,-4.821400457106391618e-02,5.074359406043834481e-02,1.157478339593757261e-01,1.308289833186235263e-01,6.823666713292711461e-02,7.341019085477543116e-02,3.639593341057184572e-02,-5.383814549586124487e-02,-7.370840646469152546e-02,-5.496270039838029031e-02,5.236167362854452639e-02,4.705751417832799988e-02,5.553337262489322149e-03,8.653280111099576760e-03,3.852746038709146947e-02,2.871704578323810639e-02,-1.976482450342814667e-02,-4.126178253252048289e-02,-5.410261649924629282e-03
-1.610003373132010474e+00,-1.627123695058985353e+00,-1.502529501599645378e+00,6.720447321023587106e-01,6.782388185761056842e-01,5.526331759909178798e-01,-2.421800318939584112e-02,2.232692692854755870e-02,7.975017719002981328e-03,-1.141798921789407978e-01,-1.789087672162714415e-01,-1.393182475635648399e-01,1.295681715288448943e-01,1.748333558430507917e-01,1.277873385648259641e-01,-7.100557583153808971e-02,-7.295123688939576800e-02,-5.942618787383723011e-02,4.828308807304702160e-02,1.646284455061495025e-02,3.769510890051121221e-02,-2.158116948529736623e-01,-2.246862750496564920e-01,-2.067122728240353702e-01,1.393861366739923002e-01,2.093524542060717919e-01,1.887753702326833705e-01,4.622818748551340423e-02,2.651489410618513946e-03,-6.787328195990411858e-03
-1.594450452998019019e+00,-1.627376829836141736e+00,-1.518353151769075593e+00,6.487013645352252000e-01,7.180069210415972458e-01,6.386844809794548494e-01,-1.223345137219273154e-01,-1.233886699187757147e-01,-1.277011706257965284e-01,-3.030532964153475478e-02,-8.253984718716322888e-02,-1.016857145279652236e-01,2.311979023938208755e-01,2.000082814054108538e-01,1.147224771017766320e-01,-1.239815122172521211e-01,-7.527590933526946693e-02,-6.661214931333495071e-02,1.245141409738336966e-02,7.664017167626537182e-03,8.972523611471204530e-02,-1.140838146383229418e-01,-1.341347511989202657e-01,-1.038311604495763263e-01,1.173820772927439832e-01,1.310051899715112267e-01,5.205802795033425551e-02,-2.436236068828441861e-02,-1.380734559716616065e-02,2.309394080708496860e-02
-1.438051584230633173e+00,-1.430412728924076671e+00,-1.245526995612430188e+00,4.487647841025315110e-01,4.354733376485898089e-01,1.650394005272822762e-01,-5.591035199454520016e-02,-4.948604906679515691e-02,7.881915047929678730e-02,1.078931119596308365e-02,-1.554045564749917049e-02,-1.073831911717882531e-01,4.850313259074139072e-02,1.008035729549082715e-01,1.841118521037851119e-01,-2.007063762471474749e-02,-6.971681096054357929e-02,-1.421880978132121220e-01,8.279190641947735407e-02,7.321101910450894534e-02,8.365504871697643230e-02,-1.585969904841467715e-01,-8.478575482038072653e-02,-1.503319825351753444e-02,9.884344252811531895e-02,4.941720647572812181e-02,-1.493743069980822506e-02,-1.689140067045937291e-02,-8.843615572092285854e-03,1.350543691965602582e-02
-1.370839229210907506e+00,-1.346216873553199411e+00,-1.262615303866683858e+00,3.940017782782969658e-01,3.441795378159712704e-01,2.610899073067403653e-01,-1.454843311688610863e-01,-1.099720905574632646e-01,-1.415201024430832663e-02,1.295348542307455109e-01,8.914240492235961377e-02,-6.918005762435629202e-02,-2.097224171968887704e-02,4.360317494370402613e-02,2.860967445146043574e-03,6.724454264583826224e-02,-1.897313342888040655e-02,9.898719681476889076e-03,-6.190399872791373104e-02,1.233897308849014364e-02,3.788673961098758258e-02,-1.925415759029887319e-02,-9.019274324470456794e-02,-1.515667633702325323e-01,-1.118962961567181169e-03,5.135652646376664965e-02,1.152453627971010142e-01,2.899559465906488900e-02,2.485690633223502574e-02,7.064854110424437228e-02
-1.409411695383161911e+00,-1.339283336793870793e+00,-1.130321488191755597e+00,4.296720447778716312e-01,3.050265388689625823e-01,8.812366671888612057e-02,-1.149003427616842460e-01,-5.078713215290607715e-03,3.898778055296724804e-02,-3.924340584859862917e-03,-7.787949491090472021e-02,-5.401959133066122631e-02,1.777023257069915152e-01,1.511927883495474689e-01,3.233111710076420203e-02,-4.105789992110122494e-02,1.186249516319674846e-03,3.568600847900015721e-02,-3.233852974786362300e-02,-1.602441621180686684e-02,1.596148170943917713e-02,-7.423852848865603038e-02,-1.073530395017146949e-01,-1.312515151045997308e-01,8.345343406726919711e-02,1.053855898871805669e-01,7.208686459370877708e-02,-1.478348270501140919e-02,-1.704772413065746076e-02,3.249559317251500545e-02
-1.464776388745683722e+00,-1.464022157322441009e+00,-1.331345285089000186e+00,4.883445410964107891e-01,4.334132895324521728e-01,2.053753285790850536e-01,-4.904962515058137323e-02,2.097186063340084755e-02,1.760970898136805518e-01,-7.332595118936045819e-02,-1.066523557276752160e-01,-1.811343107640914218e-01,1.572858033851445569e-01,1.756423316272628654e-01,1.775867206703036216e-01,-1.447995188260149391e-01,-1.115408460247337419e-01,-5.573947113984158847e-02,1.588275597799953254e-01,6.289698501375801110e-02,-8.083589343126595939e-02,-2.034379727180712361e-01,-1.208609998930630647e-01,3.210802171325592008e-02,1.588287634610190402e-01,1.571301132277470036e-01,1.023510283470429605e-01,-2.771750817826550486e-02,-4.684164467781806035e-02,-4.438889611192655543e-02
-1.629621828656091509e+00,-1.588318542328529315e+00,-1.418130369352704534e+00,6.609105888348832947e-01,5.816914035674984884e-01,3.819126164006558244e-01,-7.934119114310785037e-02,-6.628999326531018199e-02,-7.046847162783791141e-02,-8.353535798210684482e-02,-1.954642835766190467e-02,7.560516180699908273e-02,2.299328043101639685e-01,1.635451030573836506e-01,5.854942520092600716e-02,-1.523550479572657879e-01,-1.108525413076797139e-01,-8.017565665946733977e-02,1.809619550354370221e-01,1.382800861080564214e-01,6.886412683003487190e-02,-3.167243480938731204e-01,-2.807277817969551226e-01,-1.540519695797813449e-01,1.448079104135142625e-01,1.578558618322161988e-01,1.541474219867984552e-01,4.547316090565807489e-02,2.471701131067013599e-02,-1.608708649218787423e-02
-1.615700514867916660e+00,-1.629003495324669482e+00,-1.456728009066812879e+00,7.008302863743690603e-01,6.683951821543901994e-01,3.915659295067154821e-01,-5.869434068282902706e-02,-1.300010643888256830e-03,7.136068843337156631e-02,-1.641816130225454140e-01,-1.658008007897004144e-01,-6.860056401781498836e-02,2.444915666274017907e-01,2.377785696182504460e-01,1.647669061387338763e-01,-1.421366675728630291e-01,-1.087427876258478948e-01,-1.138316565037325728e-01,9.146335414808333397e-02,1.476995130662350124e-03,-6.225125368554464481e-03,-3.041214236223444001e-01,-1.980437816272196672e-01,-9.548641657154453843e-02,3.299619205406730815e-01,2.600629607293900025e-01,1.322317188906111662e-01,-8.175425930444218947e-02,-6.469409803602226006e-02,-1.897027511699031846e-02
-1.341100014707098165e+00,-1.339718020858954306e+00,-1.308535920307527745e+00,3.414733517563019460e-01,3.418940811293550985e-01,3.623412416144452530e-01,-1.990846355868222325e-02,-5.264840230756732964e-03,-7.034777432950618803e-02,-2.584220540076945932e-02,-9.062905602768357716e-02,-8.866938119464844170e-02,5.175276328766022227e-02,7.544277229003620855e-02,5.794356235009516520e-02,2.623448100562574686e-02,6.429739960282807032e-02,5.870067850313706592e-02,-3.300716748439154469e-02,-7.893350652169313364e-02,-6.728433572848634137e-02,-7.976917465981965549e-02,-6.296278751110946648e-02,-4.100291417726684151e-02,7.268423940899185198e-02,9.642799317874896359e-02,7.731664230781330749e-02,7.623017491127441828e-03,-4.388566485734350306e-04,1.962491304521606084e-02
-1.319297651722612930e+00,-1.339823128907984939e+00,-1.335150491715459742e+00,2.902566908544256252e-01,3.059473494821727257e-01,3.493837913171547460e-01,4.552517347801889741e-02,5.207729968862714193e-02,3.420969321394147500e-02,-1.332613072329191795e-01,-1.688769118111084766e-01,-2.011815704781360348e-01,1.021087527196336553e-01,1.469631618257906669e-01,1.883862354120342253e-01,-6.240750149857574036e-04,2.043989008383072931e-02,-1.254378801735830072e-02,6.800479001504486365e-02,4.512056868661646486e-02,2.737056843600834538e-02,-1.959544938016909432e-01,-2.468143983622606563e-01,-2.787933749152513019e-01,1.716128440911721675e-01,2.022506757817895962e-01,2.259198184436441159e-01,-2.824136250272401422e-02,-1.719320300494536768e-02,2.453365094389681721e-03
-1.306229479636394908e+00,-1.292909595667827594e+00,-1.201870825966145473e+00,2.529349988321014653e-01,2.107253766318369914e-01,1.685264743487944472e-01,5.592875976486007955e-02,9.147115822594001355e-02,2.473441436765442397e-02,-1.142440572197825216e-01,-8.881564999761949741e-02,1.895983803864492029e-02,1.911083367684449918e-01,1.575742000043650615e-01,-7.515448572576524482e-03,-5.418356929094911290e-02,-6.017172371545368575e-02,5.891930331878707933e-02,2.217666839508533952e-02,-8.559495660522473820e-03,-9.638600579620679176e-02,-1.665726775973485618e-01,-1.040348731243197627e-01,-6.467234523251105816e-02,5.001600803851656563e-02,5.644811939056055411e-02,9.891115593112076443e-02,6.919460237690785998e-02,3.835899852089642847e-02,4.529987725648075667e-04
-1.524901642979022309e+00,-1.534017894190159881e+00,-1.441919157649962591e+00,5.399471380522936625e-01,5.094582589615571644e-01,3.801525484900690754e-01,-5.483980564300446753e-02,2.773220361474497755e-03,9.534411789926326708e-02,-5.434280401079389505e-02,-5.619026913598784700e-02,-9.999012859938326281e-02,1.202540364034200282e-01,9.693763842865291136e-02,6.532067696001382651e-02,-5.754734787379021249e-02,-8.282457578802239484e-02,-6.300372309681327720e-02,5.677886452879178647e-02,1.123919804504044800e-01,1.043420962721618855e-01,-1.978715014339146872e-02,-5.971246205472080515e-02,-1.352268202969604816e-01,2.237931463866923293e-02,4.321594763750840479e-02,1.526366899431990665e-01,-2.773224571183923251e-02,-3.188166822276759793e-02,-5.757740223957920345e-02
-1.479580391978766007e+00,-1.515411350589870088e+00,-1.482741764835920018e+00,5.904092225766773838e-01,6.104207143130054858e-01,5.017312188416340746e-01,-1.640416343534925603e-01,-1.123808114847052175e-01,4.078654304901686845e-02,-4.312465685118994224e-02,-1.150367534039677397e-01,-1.691052616445989643e-01,5.852797432517527904e-02,1.065754414154777702e-01,1.343208115126339197e-01,1.023576293793800746e-01,1.013894295167588749e-01,2.356843337014044582e-02,-4.954228566864079392e-02,-6.780629416686834166e-02,-3.671257110447122968e-02,-1.217369285358995412e-01,-9.524375012736779889e-02,-9.720510824778663683e-02,1.107234386868935772e-01,8.392094226163011872e-02,5.252983972939128526e-02,-3.812493491090405452e-03,3.707346404684723051e-03,3.290179022523834901e-02
-1.247553257574600005e+00,-1.194581110845911676e+00,-1.148226400918137324e+00,2.223778235036988904e-01,1.596623437270004997e-01,1.469621733172608857e-01,1.087844541062011304e-03,8.958657177167873853e-02,1.678576885203722502e-01,-9.958137263604943668e-02,-2.479614214981752940e-01,-3.963822549088776293e-01,1.302642472902494630e-01,1.359873527693036266e-01,1.808193728649618581e-01,-4.084001134726616966e-02,4.033298650206312841e-02,1.166516552352078739e-01,6.320186962264942587e-02,-1.819817131660643808e-02,-2.596999682966320555e-01,-1.674460987891528696e-01,-7.659574598137197654e-02,1.486185553183092256e-01,1.764829520262328200e-01,8.244065633857189379e-02,-9.859078170481429260e-02,-3.786612601371048409e-02,2.944286134491254717e-02,1.420928617624010182e-01
-1.452436320163824846e+00,-1.443569215740335920e+00,-1.306591174125010246e+00,5.118424648389754417e-01,4.829343316601170666e-01,3.341775835467739597e-01,-1.147068231002820182e-01,-1.150735145543162613e-01,-1.693677070986535915e-01,2.058037081074287275e-02,4.296296761152765958e-02,1.045517158744376091e-01,5.186401890630176065e-02,4.751783880477754990e-02,9.008016141582797509e-02,1.457538587040410269e-02,3.058624526575743491e-02,-6.550585948479435705e-02,-7.537682013487083388e-02,-1.099382235055070267e-01,-2.362827718274019759e-02,-4.614844056066729622e-02,-4.989369625233595895e-02,-1.001094186568960154e-01,-1.213827906121783817e-02,4.206884549328888945e-02,9.887959826839323729e-02,1.021747284151551943e-01,7.257477605929209263e-02,3.761073355920988015e-02
-1.338615984752983046e+00,-1.223131394593599985e+00,-9.748749512265014738e-01,3.635148192619588325e-01,2.361973219576947169e-01,2.099577937063188543e-02,3.492541243450130329e-04,-5.736159960970235033e-02,-4.819981049947429791e-02,-1.493364145141084232e-01,-1.884154047921852287e-02,-5.580349960774243223e-02,1.379490722557038529e-01,6.922354399286756443e-02,4.807569595957671138e-02,-3.197593094933274399e-02,-5.446446500990604483e-02,-9.176518866694999277e-02,-1.891420868657975188e-03,3.763067841090336416e-03,5.558321989051436852e-03,-8.253379783793765578e-02,-1.591226692624884281e-02,4.243366234298677486e-02,1.509758054268514338e-01,2.516338174327461402e-02,-2.324123009855298683e-02,-4.829071318600094975e-02,3.548338337152038419e-02,7.691303428426297939e-02
-1.456591163767737562e+00,-1.473103074585455197e+00,-1.353486670901299593e+00,3.883108002452236862e-01,4.208326183422939626e-01,3.683898716824637320e-01,1.204011729719252077e-01,1.246037313564323928e-01,7.967071113176052433e-02,-1.875517093110394273e-01,-1.928365988861154290e-01,-1.621364554402506264e-01,1.747665019289267041e-01,1.454658648671744436e-01,8.952791527816213180e-02,-4.106407811374063188e-02,-2.940310097656171837e-02,-5.674961847753034333e-02,5.932908906614677014e-02,2.096838264214536535e-02,-4.843778831131741527e-03,-1.577655951945019785e-01,-1.203107573743234793e-01,-6.829980615317217396e-02,5.803231973096058260e-02,1.133381673590459771e-01,1.591257542095168009e-01,4.231925674909279428e-02,-9.427332656544952158e-03,-5.112614870681941870e-02
-1.598636830287178734e+00,-1.488675959612389077e+00,-1.192865368714254304e+00,6.928040841878322365e-01,4.697195822345170413e-01,5.442572290234016369e-02,8.167463677179270798e-03,7.608283141895237633e-02,9.035097292439377148e-02,-2.517978780285110574e-01,-1.526030403697267446e-01,1.341544017621574235e-02,1.938936870128592505e-01,9.531605097719890451e-02,-2.314371421641212793e-03,-1.224652869004642652e-01,-2.477780750667671339e-02,6.752711618715460939e-02,3.938037706876081762e-02,-3.861776212237015560e-02,-9.174797400256269608e-02,-1.849081493121096931e-01,-1.167290437933963809e-01,-3.697835159017728857e-02,2.865245812608369635e-01,2.152783011723030104e-01,2.576323272033256839e-02,-6.266230435937913956e-02,-3.473954000746275889e-02,7.257233734321215379e-02
-1.351930645529097141e+00,-1.272593271944048920e+00,-1.094359271006176026e+00,3.626937354824112392e-01,2.468909464344772875e-01,8.835613363809466381e-02,1.070838599660039851e-02,1.159161520480634418e-03,-6.135746505303667914e-03,-1.023923854180717047e-01,-3.906041004745567508e-02,-5.708245156312659330e-02,1.194925436154239545e-01,1.011681182079813002e-01,8.597900269924871330e-02,-1.063449632246132315e-01,-1.223975104396237412e-01,-7.653516343950611533e-02,9.331002577980376800e-02,4.885382864024972321e-02,-1.129906854156725177e-02,-1.647004951135549178e-01,-2.192741059796148723e-02,3.072861187101400340e-02,1.244443709653206831e-01,1.423730327319974731e-03,-5.766539924683189433e-02,1.487908077857654117e-02,5.660425064272293916e-02,9.810354990359768101e-02
-1.719103643277901661e+00,-1.608925271262247270e+00,-1.257083358733076084e+00,8.236949807850102445e-01,6.262577313920919542e-01,1.434870623334221218e-01,-1.443781914373971909e-01,1.151713420718022615e-02,1.753588072956730193e-01,7.344604877981628088e-02,-1.032291024083092784e-01,-2.350644002057665494e-01,-3.807492542493724763e-02,1.035813886535764117e-01,2.067508623427100622e-01,-7.279028999682912726e-02,-1.036798515888300437e-01,-6.217582574039477727e-02,1.213263814228843079e-01,1.267484015326870994e-01,5.541230509802454879e-02,-1.674366670428670822e-01,-1.439052798369986896e-01,-8.304220235743281497e-02,2.187148643534825854e-01,1.148280540195813770e-01,-2.555367056891355571e-02,-9.506504155105716114e-02,-2.290164803786111369e-02,8.209860039715881352e-02
-1.387203471908555086e+00,-1.377454444385933563e+00,-1.324178764430329336e+00,4.160456705731626070e-01,3.879248201304861809e-01,3.553977237338550310e-01,-4.599159248973276604e-02,-3.306657137804894925e-02,-1.057066346395479570e-02,-7.614989877674906149e-02,-8.283538705574657046e-02,-1.102623640038529890e-01,1.252482702516282687e-01,1.270099962587568632e-01,8.127124067048756284e-02,3.732850370616326574e-02,2.101854452431845335e-02,1.968889925581748107e-02,-7.676038569085645580e-02,-4.928329015059640557e-03,3.203969537444414234e-02,-4.858358768951766271e-02,-1.169909601216361644e-01,-2.189416533387707198e-01,5.238892202451194552e-02,8.626894823114553135e-02,2.225629591355414161e-01,3.799586989215904698e-03,-6.869600127487713974e-03,-4.696324277344151449e-02
-1.617060752398831180e+00,-1.577352036619799280e+00,-1.276053619708190645e+00,7.113290757020013233e-01,5.979419995136591170e-01,1.494222427198041159e-01,-7.318319999775967089e-02,1.607649729636809535e-02,1.237406194805705101e-01,-1.152842937797099732e-01,-1.466125434844454956e-01,-1.012633799393895251e-01,9.580981985068148798e-02,1.475314975209280066e-01,1.364623715008191074e-01,-1.208219708549619284e-02,-5.831427449966887500e-02,-2.425299794267484627e-02,9.022674477047937236e-02,4.531542535327962029e-02,-2.696685302272648632e-02,-1.520324771518939133e-01,-4.677598810420739023e-02,-1.592631747217484670e-02,6.176796585053816180e-02,-3.849564940412828623e-02,-6.615232726559805432e-02,1.074913825295941740e-02,6.089540006952757351e-02,1.011480191081171182e-01
-1.434518292948920637e+00,-1.307674238774635178e+00,-1.055649679079876391e+00,4.442552129203495848e-01,2.549006979168179643e-01,-1.067531370662207560e-02,-9.689476145495637405e-02,-6.126418544103598429e-02,-1.130553372954787306e-02,3.331060700023077970e-02,1.224595677703878838e-01,1.189048927796239746e-01,9.287615776869377615e-02,-6.434985507526516657e-02,-1.416057534439504051e-01,-1.094403410158648580e-02,9.802025018185714367e-02,3.581160288286443227e-02,-9.530927535613439860e-02,-1.740758332736601632e-01,-1.164180284778200680e-01,2.176916999290015239e-02,1.512833471446962397e-01,2.371524767996902594e-01,4.259645864467678095e-02,-2.262003958011743823e-02,-8.822996406309388528e-02,3.115411435173050594e-03,3.485023120561001574e-03,3.210566110975770354e-02
-1.479258746800933499e+00,-1.249845553988886637e+00,-9.157399586684499271e-01,5.514176793631028195e-01,2.079576779047234425e-01,-5.814632937393724582e-02,-9.471569798507945004e-02,3.486247396870742477e-02,-3.560219691450490498e-02,8.510223897971513907e-03,-8.665137339968783867e-03,-6.341887886784239314e-02,-1.140621110903389766e-02,-2.501864340306358958e-02,4.011043911819501401e-02,-3.492344682184536642e-02,-5.995710295194378592e-02,-6.712335757102996792e-02,1.507275399490529688e-01,9.722612758605246597e-02,-5.661384252894399206e-03,-2.395733439017146693e-01,-8.558349239574883360e-02,5.582296950962727794e-02,1.811738028578838700e-01,9.209339298227488257e-02,4.705161368331407107e-02,-3.176778226744417927e-02,-2.887835705179864210e-03,2.851259391461627522e-03
-1.528474187323617617e+00,-1.344518268924848270e+00,-1.000961068297329337e+00,5.711307294275240753e-01,2.288261863553182340e-01,-1.191499531341392859e-01,-2.148066390202184317e-02,1.567471122884508405e-01,1.305229349911253833e-01,-9.018604088084068715e-02,-1.402850605904022718e-01,-1.769326169391152170e-01,1.258212058689535673e-01,1.144272849909721834e-01,8.908251672257522236e-02,-9.405775003002629642e-02,-2.890289184253123228e-02,5.030578299612612631e-02,7.618073218842985606e-02,3.626956302297429380e-02,-5.831546578872068287e-03,-1.156689090309667850e-01,-6.741319751454719067e-02,-3.398516514868057947e-02,7.261392758282979309e-02,2.417577546885454898e-02,7.238970170952495342e-02,4.294098261943359029e-03,2.082056933597914786e-02,-5.317649999264384593e-03
-1.501586978551956886e+00,-1.389890279972628040e+00,-1.093021017058262601e+00,5.638813289899472503e-01,4.438381012217144650e-01,1.502941632495451429e-01,7.837830740327388079e-02,8.170466010889695929e-02,1.346315650467116813e-02,-3.151142320374259453e-01,-3.157169447632262038e-01,-1.851177751186098008e-01,2.021989307384017553e-01,1.878831672475426984e-01,7.295353742620266924e-02,5.207642519135301240e-02,2.215996078905016486e-02,6.069886852282418976e-02,-1.545165677670995441e-01,-1.112135179861061668e-01,-9.645810583571251540e-02,-1.506930836901665682e-01,-1.755811612736714600e-01,-1.056283224849405566e-01,2.769464151760667736e-01,3.047777886811326997e-01,1.601784695973966777e-01,-5.141650272692877000e-02,-4.783697093569988512e-02,2.270405476935367928e-02
-1.388714319930730579e+00,-1.370965076285131312e+00,-1.168067611445301690e+00,2.809303529286051870e-01,3.183899305936302992e-01,2.384645845521747298e-01,8.664625936718092780e-02,1.326113032313561667e-02,-1.058135466265270469e-01,-1.883379063230108952e-01,-1.227850235089328612e-01,-4.145076981261815174e-02,2.981545139130238331e-01,2.088254963428572697e-01,4.969024939158582510e-02,1.558867055826269367e-02,-2.804808723034925289e-02,-5.088068963243972537e-02,-1.304168609610591167e-01,-3.013372327600601433e-02,3.840118375724315553e-02,3.762943024364578948e-02,-3.650385683299590435e-03,-8.380212372658980835e-02,3.946404789487836795e-03,3.209948132747306865e-02,1.062213074382776096e-01,-1.525343798015219368e-02,-1.687588578434534234e-02,1.731800820094749407e-02
-1.259039483856531971e+00,-1.209824898428627282e+00,-1.058945661072370648e+00,1.718441184412714817e-01,8.194845731292396684e-02,9.689119791163991469e-03,2.881730421950317450e-02,1.207641848954254804e-01,1.354716266775064237e-01,2.155643892836937164e-02,-3.137377514542498413e-02,-1.399910599937903011e-01,2.838619295844376292e-02,2.833630198516914195e-02,4.053663409589929739e-02,4.611403898858339179e-02,9.254272352340867439e-03,-1.073572522675267718e-03,3.643353455812638718e-03,2.174018040010347597e-02,-2.821068899345804959e-02,-1.613820087429631567e-01,-1.426257104167892309e-01,-1.012395974999773102e-01,1.029432362329738559e-01,7.461782404786257428e-02,8.117061278348283726e-02,1.726321744408518266e-02,4.726737464340597522e-02,6.264854757561816312e-02
-1.323345420728023525e+00,-1.267689188942951128e+00,-1.113842026149269193e+00,2.143272855915678843e-01,1.967945670370886690e-01,1.429430892770369721e-01,1.369439641094484239e-01,7.571097711356349069e-02,-1.399953135700505481e-02,-7.927004488515232428e-02,-1.156659092409053208e-01,-8.654607491317854728e-02,5.285511649415936680e-02,9.520524452599639365e-02,5.160076465727207740e-02,-1.489204609319888517e-02,-5.536340561427236136e-03,-1.739976042708026027e-02,6.404507282968731341e-02,1.952594836976545914e-02,-6.745948808157380128e-02,-1.032109665739336934e-01,-7.186821797319953298e-02,-6.958335994235348432e-02,4.279936092402272796e-02,6.319722873464779511e-02,6.824528668744800353e-02,9.922443475435863830e-03,1.046664797468353954e-02,1.061215847218274083e-01
