-1.652068200756771077e+00,-1.621840527028110657e+00,-1.571364364828187865e+00,7.504747992522372568e-01,7.027787792462678595e-01,6.343664399903572448e-01,-1.531191215680688944e-01,-1.592114466955783514e-01,-1.703677226707097370e-01,-9.470302093403718674e-03,1.766576300856936843e-02,5.497446955606129226e-02,8.715866278202777373e-02,9.163084347206049141e-02,8.526135187725153441e-02,-2.262745371420007284e-02,-3.071873809785660714e-02,-3.262857675454767376e-02
-1.707839016785345887e+00,-1.720511460192465369e+00,-1.674227637328355112e+00,8.645938040282001857e-01,8.728016297078390329e-01,7.837154932871845947e-01,-2.136787457239408827e-01,-2.220450240176852497e-01,-1.836228004056555674e-01,-1.723943948989922481e-01,-1.609772737391552133e-01,-1.292677314918262432e-01,4.166052790286966512e-01,4.194938134497283033e-01,3.558662243131465175e-01,-1.870204668575078111e-01,-1.885376518260265533e-01,-1.522726726553779719e-01
-1.517553902848231218e+00,-1.540619518109583197e+00,-1.515086018542602497e+00,6.071346472232225233e-01,6.351363697027895272e-01,5.740227978667054032e-01,-1.261611233228020490e-01,-1.242878306478279876e-01,-6.007932603003054983e-02,-1.039075912226295473e-01,-1.117688715640915847e-01,-1.415330467165707984e-01,1.380630088383228982e-01,1.571020290630779082e-01,1.656736517353921689e-01,2.629563642966205577e-03,-1.540314503292079633e-02,-2.287726767785073362e-02
-1.403608379866887468e+00,-1.390486882475061581e+00,-1.365615448153402633e+00,3.922433225499405429e-01,3.735519563080836880e-01,3.408291679721615064e-01,-6.140734912568274195e-02,-6.856121121465215407e-02,-6.021527075580389299e-02,6.166370854382453859e-02,5.328834334211855761e-02,1.523331522274576008e-02,-3.004125151885774642e-02,-1.703983489779013066e-02,1.645196108290625236e-02,4.138374377207722915e-02,4.942377841113076986e-02,5.344333442591041317e-02
-1.279477334339496064e+00,-1.280614087816794866e+00,-1.262863819198288606e+00,1.912503519882108871e-01,1.884839745557851665e-01,1.875466488543614252e-01,6.525017260602984648e-02,9.595346587508331304e-03,-5.287333731572770035e-02,-1.167009538133551572e-01,-1.932674553911936655e-02,3.690716287483754993e-02,9.690816367075087701e-02,5.699718971288310343e-02,5.000689062300982257e-02,4.297493338177373057e-02,4.504375215894269868e-02,4.141545608239273479e-02
-1.158365827444103768e+00,-1.132750668679630923e+00,-1.103762321333984886e+00,7.536023062996373423e-02,4.744750753447893321e-02,1.861762419167363111e-02,8.111985522996773001e-02,7.546802086292943301e-02,6.974574779484335463e-02,-1.596474536957602497e-01,-1.444451423847941673e-01,-1.269293265087466371e-01,2.212048628566406494e-01,2.255571050714062498e-01,2.188735714546842237e-01,-5.943821030668783312e-02,-7.108361169063970308e-02,-7.638801448600776589e-02
-1.100838029308420563e+00,-1.100741858693369490e+00,-1.088657410603766973e+00,9.970632021879176354e-02,1.053608958432003528e-01,1.170899439326907737e-01,3.604096161727585179e-02,4.009110519814117896e-02,2.456989574574548404e-02,-7.004741162123376275e-02,-8.753234723169604770e-02,-8.474038443625618588e-02,3.006100718804372712e-02,3.986352023672017075e-02,3.592523683860118083e-02,5.275075502194177465e-03,3.132896028163273828e-03,-4.045665304593821024e-03
-1.213782278868288822e+00,-1.238508664121404479e+00,-1.247987229944897303e+00,1.857607702196461819e-01,2.637850422393667182e-01,3.112678867024321061e-01,1.734111913277515959e-01,1.132644948841265986e-01,8.055975189978178963e-02,-3.202629663226190804e-01,-3.446626991918372851e-01,-3.557006255182089127e-01,2.436181028688571559e-01,2.992893965602073658e-01,3.105315400072992671e-01,-6.850372072510513277e-02,-9.295309671861141931e-02,-9.850710444544205635e-02
-1.074640650131858166e+00,-1.059379062840408281e+00,-1.043603443586574198e+00,6.685839515184033299e-02,2.702986532450035728e-02,7.324778346271600474e-03,1.831763465547668265e-02,4.672208474892421137e-03,-1.365264773586112243e-02,-8.006993625237909806e-02,-2.246141552492064361e-02,2.390050535916857580e-02,4.126387502071753033e-02,1.425807136914559320e-02,-6.584920160372913917e-03,2.836595634632032431e-02,3.596654937536636343e-02,3.268429987652114038e-02
-1.201960199238778504e+00,-1.163869084614465033e+00,-1.114441572156176230e+00,2.015120530293732504e-01,1.502426822978317755e-01,1.051780705400366528e-01,4.513199194187580282e-02,4.129123024829068483e-02,1.835616922553886393e-02,-9.758947990876278011e-02,-5.861790086343059147e-02,-2.542579596006091722e-02,8.423691235888808304e-02,4.680585821790347184e-02,2.290003583082084876e-02,-3.124461999896514797e-02,-1.578415859640165675e-02,-6.513281484509665133e-03
-1.057561110821978012e+00,-9.944744677528581933e-01,-9.423134991455072162e-01,3.813905621196426315e-02,-2.436006132404227101e-02,-5.821976856507656006e-02,8.705223384921832730e-02,1.142389637897841953e-01,1.186803587578194874e-01,-1.507053962407154946e-01,-1.928654148476659502e-01,-2.086513105238414767e-01,1.208956797124792204e-01,1.011885370723199923e-01,6.848119505915466199e-02,-3.772740571765493406e-02,-3.649132641217147331e-03,2.208511085364904536e-02
-1.282764190886227729e+00,-1.254883314994476251e+00,-1.210047502800640995e+00,3.181101743545491356e-01,2.544253604165503946e-01,1.750489743903513584e-01,-2.446953028425427265e-02,1.079938685733382829e-02,4.445268675648939016e-02,-2.257506584196464910e-02,-2.967399705803371035e-02,-3.147883487415426701e-02,2.525665447895156235e-02,2.218430544845418143e-02,1.583547681701309370e-02,-1.345585421974172802e-02,-2.765947041462103653e-03,6.254824047122670323e-03
-1.166866485638725859e+00,-1.122453309140220457e+00,-1.061955056339521031e+00,1.604121658212884494e-01,9.225052855370390048e-02,2.678069843578254755e-02,4.381176388545220818e-02,5.577199111600549680e-02,5.187119474207837339e-02,-1.516416403242493993e-01,-1.305643864181386393e-01,-1.088213982311568434e-01,1.515159192150810630e-01,1.345694873917724355e-01,1.156743264580064878e-01,-3.714963321813610775e-02,-2.950682192660069453e-02,-2.349415793915580683e-02
-1.172570702602262704e+00,-1.126366079079921478e+00,-1.061693940749687926e+00,1.273753154475514571e-01,9.220862383091671388e-02,5.618520216665338907e-02,9.634793435772150139e-02,5.979476544608948452e-02,1.219478593235127743e-02,-6.836397978487560034e-02,-4.216176220882955628e-02,-2.052499444353904356e-02,-1.279288038853447496e-02,-8.492341824236582237e-03,-1.650873753101050889e-03,3.010082284465055366e-02,2.509650077018573539e-02,1.555488801802502874e-02
-1.233908682758765973e+00,-1.204673041728524963e+00,-1.160950192094135858e+00,1.974698769648590702e-01,1.429835262783831773e-01,9.549926249339739381e-02,4.960304019736399422e-02,4.651098016505667010e-02,3.408427321376365088e-02,-1.656510030702905978e-01,-1.043852677065188334e-01,-5.802148712281278431e-02,1.675805214617254180e-01,9.817731079726171872e-02,4.369634461660623637e-02,-1.498793346441803544e-02,2.147922737201124824e-02,4.577083303011771076e-02
-1.241844770335717829e+00,-1.171801260689588231e+00,-1.084394100653938597e+00,1.901717647729742056e-01,1.190631867937279459e-01,5.197076236670298416e-02,1.164082565334835923e-01,8.663401785538754618e-02,4.253925357971889004e-02,-9.515305133164631002e-02,-5.192417707550182893e-02,-1.967565835620771822e-02,7.954476605166754810e-02,8.145497901104976901e-02,7.623666647804443197e-02,-4.904093273397769348e-02,-6.335958388625700932e-02,-6.662483032321805942e-02
-1.327118987483407064e+00,-1.330182509678663916e+00,-1.288712982821130337e+00,3.525213432879406028e-01,3.552724052412840061e-01,3.060825315340835462e-01,-8.108878171723876704e-02,-8.897560737821043342e-02,-9.185328110206135432e-02,-9.566869836793302773e-02,-8.162912203916744547e-02,-3.880166757809448003e-02,1.600307349733356976e-01,1.554145506032633961e-01,1.131808553119650063e-01,-8.534959229712934387e-03,-9.782512099510637729e-03,2.029492534822100055e-04
-1.065702573811440068e+00,-1.073483919271211118e+00,-1.072880421458292100e+00,5.320544982671022993e-02,8.032242403732564595e-02,1.111749639566656650e-01,3.113670428521723640e-02,-5.572772730113366609e-03,-4.843228678713908109e-02,-1.509066028340875776e-01,-1.236787463761034878e-01,-9.294875319312453921e-02,1.345614856775946555e-01,1.126662928919032608e-01,8.442097238160742312e-02,-2.230437669046876972e-03,9.801252009913961893e-03,1.871557118230652086e-02
-1.652068200756771077e+00,-1.621840527028110657e+00,-1.571364364828187865e+00,7.504747992522372568e-01,7.027787792462678595e-01,6.343664399903572448e-01,-1.531191215680688944e-01,-1.592114466955783514e-01,-1.703677226707097370e-01,-9.470302093403718674e-03,1.766576300856936843e-02,5.497446955606129226e-02,8.715866278202777373e-02,9.163084347206049141e-02,8.526135187725153441e-02,-2.262745371420007284e-02,-3.071873809785660714e-02,-3.262857675454767376e-02
-1.707839016785345887e+00,-1.720511460192465369e+00,-1.674227637328355112e+00,8.645938040282001857e-01,8.728016297078390329e-01,7.837154932871845947e-01,-2.136787457239408827e-01,-2.220450240176852497e-01,-1.836228004056555674e-01,-1.723943948989922481e-01,-1.609772737391552133e-01,-1.292677314918262432e-01,4.166052790286966512e-01,4.194938134497283033e-01,3.558662243131465175e-01,-1.870204668575078111e-01,-1.885376518260265533e-01,-1.522726726553779719e-01
-1.517553902848231218e+00,-1.540619518109583197e+00,-1.515086018542602497e+00,6.071346472232225233e-01,6.351363697027895272e-01,5.740227978667054032e-01,-1.261611233228020490e-01,-1.242878306478279876e-01,-6.007932603003054983e-02,-1.039075912226295473e-01,-1.117688715640915847e-01,-1.415330467165707984e-01,1.380630088383228982e-01,1.571020290630779082e-01,1.656736517353921689e-01,2.629563642966205577e-03,-1.540314503292079633e-02,-2.287726767785073362e-02
-1.403608379866887468e+00,-1.390486882475061581e+00,-1.365615448153402633e+00,3.922433225499405429e-01,3.735519563080836880e-01,3.408291679721615064e-01,-6.140734912568274195e-02,-6.856121121465215407e-02,-6.021527075580389299e-02,6.166370854382453859e-02,5.328834334211855761e-02,1.523331522274576008e-02,-3.004125151885774642e-02,-1.703983489779013066e-02,1.645196108290625236e-02,4.138374377207722915e-02,4.942377841113076986e-02,5.344333442591041317e-02
-1.279477334339496064e+00,-1.280614087816794866e+00,-1.262863819198288606e+00,1.912503519882108871e-01,1.884839745557851665e-01,1.875466488543614252e-01,6.525017260602984648e-02,9.595346587508331304e-03,-5.287333731572770035e-02,-1.167009538133551572e-01,-1.932674553911936655e-02,3.690716287483754993e-02,9.690816367075087701e-02,5.699718971288310343e-02,5.000689062300982257e-02,4.297493338177373057e-02,4.504375215894269868e-02,4.141545608239273479e-02
-1.158365827444103768e+00,-1.132750668679630923e+00,-1.103762321333984886e+00,7.536023062996373423e-02,4.744750753447893321e-02,1.861762419167363111e-02,8.111985522996773001e-02,7.546802086292943301e-02,6.974574779484335463e-02,-1.596474536957602497e-01,-1.444451423847941673e-01,-1.269293265087466371e-01,2.212048628566406494e-01,2.255571050714062498e-01,2.188735714546842237e-01,-5.943821030668783312e-02,-7.108361169063970308e-02,-7.638801448600776589e-02
-1.100838029308420563e+00,-1.100741858693369490e+00,-1.088657410603766973e+00,9.970632021879176354e-02,1.053608958432003528e-01,1.170899439326907737e-01,3.604096161727585179e-02,4.009110519814117896e-02,2.456989574574548404e-02,-7.004741162123376275e-02,-8.753234723169604770e-02,-8.474038443625618588e-02,3.006100718804372712e-02,3.986352023672017075e-02,3.592523683860118083e-02,5.275075502194177465e-03,3.132896028163273828e-03,-4.045665304593821024e-03
-1.213782278868288822e+00,-1.238508664121404479e+00,-1.247987229944897303e+00,1.857607702196461819e-01,2.637850422393667182e-01,3.112678867024321061e-01,1.734111913277515959e-01,1.132644948841265986e-01,8.055975189978178963e-02,-3.202629663226190804e-01,-3.446626991918372851e-01,-3.557006255182089127e-01,2.436181028688571559e-01,2.992893965602073658e-01,3.105315400072992671e-01,-6.850372072510513277e-02,-9.295309671861141931e-02,-9.850710444544205635e-02
-1.074640650131858166e+00,-1.059379062840408281e+00,-1.043603443586574198e+00,6.685839515184033299e-02,2.702986532450035728e-02,7.324778346271600474e-03,1.831763465547668265e-02,4.672208474892421137e-03,-1.365264773586112243e-02,-8.006993625237909806e-02,-2.246141552492064361e-02,2.390050535916857580e-02,4.126387502071753033e-02,1.425807136914559320e-02,-6.584920160372913917e-03,2.836595634632032431e-02,3.596654937536636343e-02,3.268429987652114038e-02
-1.201960199238778504e+00,-1.163869084614465033e+00,-1.114441572156176230e+00,2.015120530293732504e-01,1.502426822978317755e-01,1.051780705400366528e-01,4.513199194187580282e-02,4.129123024829068483e-02,1.835616922553886393e-02,-9.758947990876278011e-02,-5.861790086343059147e-02,-2.542579596006091722e-02,8.423691235888808304e-02,4.680585821790347184e-02,2.290003583082084876e-02,-3.124461999896514797e-02,-1.578415859640165675e-02,-6.513281484509665133e-03
-1.057561110821978012e+00,-9.944744677528581933e-01,-9.423134991455072162e-01,3.813905621196426315e-02,-2.436006132404227101e-02,-5.821976856507656006e-02,8.705223384921832730e-02,1.142389637897841953e-01,1.186803587578194874e-01,-1.507053962407154946e-01,-1.928654148476659502e-01,-2.086513105238414767e-01,1.208956797124792204e-01,1.011885370723199923e-01,6.848119505915466199e-02,-3.772740571765493406e-02,-3.649132641217147331e-03,2.208511085364904536e-02
-1.282764190886227729e+00,-1.254883314994476251e+00,-1.210047502800640995e+00,3.181101743545491356e-01,2.544253604165503946e-01,1.750489743903513584e-01,-2.446953028425427265e-02,1.079938685733382829e-02,4.445268675648939016e-02,-2.257506584196464910e-02,-2.967399705803371035e-02,-3.147883487415426701e-02,2.525665447895156235e-02,2.218430544845418143e-02,1.583547681701309370e-02,-1.345585421974172802e-02,-2.765947041462103653e-03,6.254824047122670323e-03
-1.166866485638725859e+00,-1.122453309140220457e+00,-1.061955056339521031e+00,1.604121658212884494e-01,9.225052855370390048e-02,2.678069843578254755e-02,4.381176388545220818e-02,5.577199111600549680e-02,5.187119474207837339e-02,-1.516416403242493993e-01,-1.305643864181386393e-01,-1.088213982311568434e-01,1.515159192150810630e-01,1.345694873917724355e-01,1.156743264580064878e-01,-3.714963321813610775e-02,-2.950682192660069453e-02,-2.349415793915580683e-02
-1.172570702602262704e+00,-1.126366079079921478e+00,-1.061693940749687926e+00,1.273753154475514571e-01,9.220862383091671388e-02,5.618520216665338907e-02,9.634793435772150139e-02,5.979476544608948452e-02,1.219478593235127743e-02,-6.836397978487560034e-02,-4.216176220882955628e-02,-2.052499444353904356e-02,-1.279288038853447496e-02,-8.492341824236582237e-03,-1.650873753101050889e-03,3.010082284465055366e-02,2.509650077018573539e-02,1.555488801802502874e-02
-1.233908682758765973e+00,-1.204673041728524963e+00,-1.160950192094135858e+00,1.974698769648590702e-01,1.429835262783831773e-01,9.549926249339739381e-02,4.960304019736399422e-02,4.651098016505667010e-02,3.408427321376365088e-02,-1.656510030702905978e-01,-1.043852677065188334e-01,-5.802148712281278431e-02,1.675805214617254180e-01,9.817731079726171872e-02,4.369634461660623637e-02,-1.498793346441803544e-02,2.147922737201124824e-02,4.577083303011771076e-02
-1.241844770335717829e+00,-1.171801260689588231e+00,-1.084394100653938597e+00,1.901717647729742056e-01,1.190631867937279459e-01,5.197076236670298416e-02,1.164082565334835923e-01,8.663401785538754618e-02,4.253925357971889004e-02,-9.515305133164631002e-02,-5.192417707550182893e-02,-1.967565835620771822e-02,7.954476605166754810e-02,8.145497901104976901e-02,7.623666647804443197e-02,-4.904093273397769348e-02,-6.335958388625700932e-02,-6.662483032321805942e-02
-1.327118987483407064e+00,-1.330182509678663916e+00,-1.288712982821130337e+00,3.525213432879406028e-01,3.552724052412840061e-01,3.060825315340835462e-01,-8.108878171723876704e-02,-8.897560737821043342e-02,-9.185328110206135432e-02,-9.566869836793302773e-02,-8.162912203916744547e-02,-3.880166757809448003e-02,1.600307349733356976e-01,1.554145506032633961e-01,1.131808553119650063e-01,-8.534959229712934387e-03,-9.782512099510637729e-03,2.029492534822100055e-04
-1.065702573811440068e+00,-1.073483919271211118e+00,-1.072880421458292100e+00,5.320544982671022993e-02,8.032242403732564595e-02,1.111749639566656650e-01,3.113670428521723640e-02,-5.572772730113366609e-03,-4.843228678713908109e-02,-1.509066028340875776e-01,-1.236787463761034878e-01,-9.294875319312453921e-02,1.345614856775946555e-01,1.126662928919032608e-01,8.442097238160742312e-02,-2.230437669046876972e-03,9.801252009913961893e-03,1.871557118230652086e-02
-9.650688051299345371e-01,-9.606081323930806271e-01,-9.372022623967124488e-01,-1.404375197812679221e-01,-9.959996623841321783e-02,-7.032209904520266008e-02,1.370336453058249582e-01,1.089438941995040933e-01,6.651871054424533802e-02,-7.303148658591257503e-02,-9.749179757529118084e-02,-1.019659200418987083e-01,-1.274850360404127803e-01,-1.323943755799802946e-01,-1.215219415881915177e-01,1.694086018655506509e-01,1.815083400881647990e-01,1.647640365895739201e-01
-1.189280403446342449e+00,-1.070794300841269697e+00,-9.510533703829353591e-01,7.504628694073807449e-02,-5.510134332795611767e-02,-1.407808981092553979e-01,5.794697553271346835e-02,1.146922385551417262e-01,1.068350508812723199e-01,-5.689901778976610286e-02,-7.022967534253869715e-02,-5.008902412087902489e-02,1.209248872495134047e-01,5.904191467645633629e-03,-7.240464154878741010e-02,-7.523135843145203200e-03,7.571821157355956844e-02,1.076466070842341388e-01
-8.311944942821181126e-01,-8.063446680093681040e-01,-7.614759900090299904e-01,-5.293609743368457576e-02,-9.036717314812919843e-02,-1.307521366714573530e-01,-1.067238588984010805e-01,-1.165621946250338520e-01,-1.228350423765911664e-01,-1.548727849347657781e-01,-1.281996053107044009e-01,-1.070273571678038299e-01,1.194790265343170510e-01,1.115841759575396386e-01,1.032356866809456264e-01,2.646674092768111150e-02,3.008049212705483227e-02,1.902576062983115865e-02
-9.972274739776623154e-01,-9.322176632411217634e-01,-8.501289812313939098e-01,-7.488445095120589701e-02,-1.152561393787577132e-01,-1.802667647545831420e-01,7.601022071158894389e-02,-7.449376526422590156e-03,-2.354655554711310855e-02,-1.650258651184207392e-01,-8.273700099979243439e-02,-7.668327862969484543e-02,1.554574238406989661e-01,1.557847917117821668e-01,1.679937913755109591e-01,5.836561802242158647e-03,-1.797630048394493335e-02,-3.724065088495200071e-02
-1.171393141108931113e+00,-1.200352849367883890e+00,-1.203084953910704913e+00,-1.503516584246639490e-02,1.065941790760233793e-01,1.967441344849565066e-01,1.156775261732499865e-01,3.562658652317500507e-02,-3.077341804601458480e-02,-2.918797759120489790e-02,-4.325979144008189337e-02,-5.925392570367792044e-02,7.176682985172980200e-02,6.266798593354455660e-02,6.917386494390534435e-02,2.844864555003445011e-02,3.894732951669094972e-02,2.735956440368004713e-02
-1.417224970515186921e+00,-1.357672709330941974e+00,-1.240627261254969804e+00,2.388174302161207574e-01,1.798575145737373038e-01,4.210154560267189566e-02,7.286275372418279939e-02,6.276023859221087353e-02,1.207296635974457744e-01,1.953414607953005422e-01,1.616456889211390635e-01,4.526040147286224113e-02,-1.548832485007188009e-01,-1.077451768730945530e-01,-2.824861450014384129e-02,6.550763612808703507e-02,6.151440584106943749e-02,6.108036975452129508e-02
-1.184159562773451579e+00,-1.122478348083454813e+00,-1.055647307417794778e+00,2.873321920434130372e-01,2.200465731405531755e-01,1.602381871036567540e-01,-1.202049789995350421e-01,-1.129530524291461613e-01,-1.216953871373151336e-01,-1.171400554282726880e-02,-2.119250349945680026e-02,-9.325828788100992001e-03,4.480799153025240289e-02,2.567451347311766954e-02,-2.640428828233153807e-02,-1.596528328153308529e-02,1.097921420359650006e-02,5.290017971935180585e-02
-1.179832289649927590e+00,-1.161022452124794491e+00,-1.134563604550534510e+00,3.555242318146301789e-02,1.288783453254692575e-02,1.421529829041034542e-03,1.408085918866662789e-01,1.490750192965408505e-01,1.366758757131004975e-01,-1.367588626688992781e-01,-1.546955284930469077e-01,-1.710215615007253664e-01,1.285211555174695652e-01,1.424641319788490790e-01,1.574090836222105383e-01,1.197315397447872888e-02,1.151534968573142935e-02,1.024561180277207273e-02
-1.057378528082889790e+00,-1.044524144071115712e+00,-1.029447967386774465e+00,1.754330888033297023e-02,-6.347413771513799562e-03,-9.672077100378696085e-03,1.340409752101791585e-01,1.417245311126327512e-01,1.282643849635175248e-01,-3.108774781156300460e-01,-2.455968232841705956e-01,-1.841685625808097415e-01,2.191593953108453841e-01,1.609109981005799328e-01,1.162368411509459437e-01,-2.406631600249083298e-03,-6.096254930992451269e-03,-2.115624841894077346e-02
-9.659582609771111272e-01,-9.183132116186402127e-01,-8.732853662043227327e-01,-8.973327297812715153e-02,-9.957329732273090261e-02,-9.209718167276691181e-02,-4.384753249809050790e-02,-9.371342228652665418e-02,-1.311926065810577191e-01,-3.653711994112231187e-02,-6.200307087475726703e-03,1.372850202783883027e-02,8.165743056043603398e-02,2.830143287086243908e-02,-1.581143544400559486e-02,5.450212867568801633e-02,8.956588475355047041e-02,9.871158395646671690e-02
-9.861749334015813551e-01,-9.348344494463043386e-01,-8.884853894809721098e-01,-6.798901158481222839e-02,-1.066664476460578020e-01,-1.148628897933949011e-01,1.910214688183662149e-02,-2.058730566195733289e-02,-6.270986978460346695e-02,-1.190118241013150696e-01,-7.721353390438534525e-02,-4.268836197960985956e-02,1.511815441060227472e-01,1.111606082714449717e-01,7.439146335090104922e-02,2.960833015374361461e-03,2.820040102549381186e-02,3.440341311369085608e-02
-1.347185672801026746e+00,-1.295717418183848890e+00,-1.204891794273541317e+00,4.052594049773892704e-01,3.287173581538087030e-01,2.338329644613941494e-01,-5.096471826195232008e-02,-3.758153804247096885e-02,-5.698865287933532059e-02,-1.097190468301996319e-01,-8.767238401961462146e-02,-4.950067512901994149e-02,1.054769750610079632e-01,8.293329814142483269e-02,6.636142916590839769e-02,-2.747397295112349001e-03,9.421271961698082439e-03,1.126736798987421420e-02
-1.210428946714248388e+00,-1.202253560433119040e+00,-1.149094394592185653e+00,1.575309217286231245e-01,1.562599901723376039e-01,1.224525301325787574e-01,1.205321548041131223e-03,5.332071486556200918e-02,8.422931207215850202e-02,2.532194604512327460e-02,-6.156321954418616377e-02,-1.354592303222415806e-01,2.000983035798401671e-02,3.511452176845304002e-02,6.260614804468681016e-02,6.485253496373988638e-03,1.922767974845641242e-02,1.535059174228241979e-02
-8.863181498904950661e-01,-8.506617787380829077e-01,-8.119412946201357562e-01,-1.010514586857565594e-01,-9.117974066995085392e-02,-8.907800631341525333e-02,6.855404523922136416e-03,-4.487600750375857206e-02,-7.871654978521447354e-02,-1.806760810440377618e-01,-1.659725520277217647e-01,-1.436482826699362891e-01,7.748568412020537255e-02,5.366640644659265158e-02,2.745792176907227433e-02,8.377521987442129725e-02,9.908027501980799789e-02,9.597564280969179962e-02
-9.919129229844920737e-01,-9.857353800202139915e-01,-9.378640814402315895e-01,-4.220904109907300424e-03,3.616501972552861859e-03,-2.187595117269830816e-02,-2.511249716236393231e-02,-1.595006519594478929e-03,1.149650558206375024e-02,2.607343788799968559e-02,-9.954836449334919860e-03,-1.775166096293550114e-02,2.945645517491336449e-03,-2.754762318869457757e-03,-3.423781143572842550e-02,-7.707415506846115004e-03,-3.518833940068332063e-03,2.856099821477549251e-04
-1.154340383872661135e+00,-1.102697507979530256e+00,-1.035883455822818711e+00,8.272410291095928792e-02,1.523650151626049221e-02,-3.708773807475379547e-02,4.949904881166530997e-03,2.333301237726279412e-02,1.007743734839601155e-02,4.093346747676197134e-02,5.317351033709143832e-02,6.312184128592528143e-02,-5.613243568758561480e-02,-9.677431403786002084e-02,-1.218405263562822721e-01,8.207448653088283974e-02,1.079097025779390817e-01,1.217607749520545068e-01
-1.123590738962988000e+00,-1.082002996945533591e+00,-1.031166108338697374e+00,9.532438269284453092e-02,4.805157554671288939e-02,6.104338584473629169e-03,-3.518602238592312415e-02,-2.423049662815908792e-02,-1.521394083433359398e-02,-4.863738287817613581e-02,-4.618613144491244549e-02,-5.428424793692478156e-02,9.743440137298188530e-02,7.845651244571387462e-02,7.213301576809806603e-02,1.476101584027055685e-02,2.599988931510205728e-02,2.249626218286838314e-02
-9.868588501500310528e-01,-9.514320681127549362e-01,-9.150839971422768393e-01,-6.157805339326267308e-02,-6.487442106605884051e-02,-7.393517930950137262e-02,-3.250093162377161449e-02,-6.331446854219707765e-02,-7.683727904533588227e-02,-8.978571515949322623e-02,-8.517934166202600910e-02,-8.826316271268921931e-02,9.891101522171708016e-03,-9.087604128011045335e-03,3.309114724610873193e-03,1.609651584438933358e-01,1.739970034810673083e-01,1.508902708516123015e-01
-1.121353094694824470e+00,-1.115748096202283213e+00,-1.108288915737031921e+00,-4.328816141484261026e-02,-2.213353708219171698e-02,1.958062333226366636e-02,1.450200298650324016e-01,1.226781027746199348e-01,7.577652258242746630e-02,-4.228569002277234729e-02,-4.379013968489598591e-02,-1.941926005636246053e-02,9.507927003017310752e-02,1.087827506700149161e-01,6.405187736468390125e-02,-3.281273562728037607e-02,-4.948269144589179103e-02,-3.143388758604725303e-02
-1.034215149718507254e+00,-1.028736345466984892e+00,-9.832372883311416567e-01,1.747895523251781144e-02,3.887950519986031750e-02,2.883954347421436876e-03,1.446901377173678317e-02,-2.048297706185686629e-02,-1.904518850012451234e-02,5.138191291641322489e-02,4.539994345116327851e-02,1.857916632099129717e-02,-1.520299240278300684e-02,-4.453546504663084826e-03,2.344392766504880751e-02,-3.376967351138031315e-02,-3.048329474989930690e-02,-4.251620969613638390e-02
-1.491402848207091791e+00,-1.456943093693436886e+00,-1.376683482851096318e+00,5.792199287721405687e-01,5.316513995893153988e-01,4.336073623354863571e-01,-1.943824138941497581e-01,-2.046022977245132990e-01,-1.955343391143057608e-01,1.040320252461265915e-01,1.344539731209078992e-01,1.357876804295751749e-01,2.899100896014553813e-02,-5.373135707947373704e-03,-2.177942532081034860e-02,-2.628556681976244869e-02,9.591961206136736130e-04,2.472455146919294924e-02
-1.080820885264389242e+00,-1.047413862411307406e+00,-1.003774061385114713e+00,5.981894210579936227e-02,2.790742653891337827e-02,-5.588839733193175403e-03,-4.958690897446896284e-02,-5.684107020925293491e-02,-5.154107155209625146e-02,3.396497117306170738e-02,2.501341571895412605e-02,3.085326029961426783e-03,-2.549472844573456159e-02,1.211070093249928120e-02,4.841332584856530147e-02,6.235153582782231724e-02,3.942436666683447194e-02,9.576951272777654844e-03
-9.724208548081771930e-01,-9.540314369022770968e-01,-9.281505262731205574e-01,8.298276375338382860e-02,9.423883865322101039e-02,1.058381284416338858e-01,-1.257737801271376077e-01,-1.003068433949184379e-01,-8.683132779734727136e-02,-1.704691955127869696e-02,-8.306716325264018597e-02,-1.212657827973938340e-01,6.722072486648592027e-02,1.052638779016202564e-01,1.266614206122333441e-01,-3.473831425531440781e-02,-6.191350971148758958e-02,-9.611139712439523142e-02
-1.133129549615329745e+00,-1.139246667257164392e+00,-1.115907504873118850e+00,5.628106686966702354e-02,3.929905331150133213e-02,2.316322933528627143e-02,7.740916762709966481e-02,1.267556182666914888e-01,1.323145961885403010e-01,-2.525883704530626148e-03,-3.350650839303630224e-02,-5.024026637189522165e-02,-7.593015909113347284e-02,-7.107689918415699415e-02,-6.363177886955931339e-02,7.806474716908448630e-02,7.792125678720801529e-02,7.442767667766606032e-02
-1.079023453450232761e+00,-1.079644281608851619e+00,-1.093688998859146499e+00,-9.770628905577175005e-02,-9.162658257556358099e-02,-2.314487541821352509e-02,1.289781977432050142e-02,-5.886006254315238884e-02,-1.580479308048521880e-01,-8.521979664976683799e-02,-1.777562833503061601e-04,9.902700055546473368e-02,3.900692432961919698e-01,4.294113969325649705e-01,3.796316317062243262e-01,-1.406641938070058440e-01,-1.988521472530433709e-01,-2.036086518546387503e-01
-1.216962411370776209e+00,-1.187148806999674289e+00,-1.139883271617002647e+00,2.488665087158481171e-01,2.202951625737843422e-01,1.752503475039701442e-01,-1.333825041079812479e-01,-1.285423588604991674e-01,-1.130824109983666892e-01,9.914867174774755210e-02,1.122942077610119271e-01,1.118092047097073022e-01,-5.382762164976594155e-02,-6.817310696043313301e-02,-7.137481660558241126e-02,5.634580241095878822e-02,5.143105711387413459e-02,3.740704719101577147e-02
-1.112699282210848128e+00,-1.108309574017741994e+00,-1.083443872142596964e+00,1.956036754681480042e-02,3.817461150996701025e-02,5.682613184360631869e-02,2.011198049204213426e-02,8.735371605763500580e-03,-1.266563222727816115e-02,2.629647381477650397e-02,1.522959157810941516e-02,-1.319630654529658012e-02,4.032877392552435686e-02,6.653943715114914170e-03,1.361267333459759143e-03,6.610743424469991796e-03,3.969201381063944961e-02,5.125894157434809917e-02
-1.310322660682507356e+00,-1.254981385337779143e+00,-1.149816732579897360e+00,1.921818867242925943e-01,7.846565325070321839e-02,-3.315254122590974295e-02,1.204498335008201554e-01,2.253280597155937204e-01,2.349145592330213195e-01,-1.094743657252920110e-01,-1.409523721866057511e-01,-1.209324920390396213e-01,1.717911407357282094e-01,1.135326752473671819e-01,4.314481257253335866e-02,-6.447611345670796468e-02,-2.127613148642083091e-02,2.593461659241327530e-02
-9.863467814706323722e-01,-9.658183819986466689e-01,-9.457195596093243006e-01,-4.240100636038684340e-02,-3.642294164198299489e-02,-1.270179524653984593e-02,6.404412926838586040e-02,5.351576874804726131e-02,3.482490721723835447e-02,-1.646801396616181246e-01,-1.539528199748095572e-01,-1.284568971880226951e-01,1.187647941519820172e-01,7.909978342560537723e-02,3.073100764954785763e-02,1.068152592321365731e-02,2.362789282133296795e-02,2.136195817513614897e-02
-1.157413831266984161e+00,-1.124531909078872127e+00,-1.071656804149349496e+00,1.217488330253476830e-01,9.072584344362429054e-02,5.713691379631884865e-02,7.358944693189864439e-02,5.810195189267263610e-02,2.790320060057832272e-02,-7.103661441965741785e-02,-6.018132866177219181e-02,-4.441805895344973915e-02,-2.495323656413494379e-02,2.158633754891454981e-03,2.293814158854415308e-02,5.821795865913885482e-02,3.385536355125738639e-02,8.198398994338150850e-03
-1.236988850614541890e+00,-1.219381648722005274e+00,-1.172081252808500507e+00,1.922240874631581664e-01,1.340631914776706235e-01,1.070380938254598957e-01,1.919374963108268564e-02,1.153968261819908608e-01,1.153547380166214664e-01,-7.950557944845117186e-02,-1.017641678445199288e-01,-8.845775292814801738e-02,9.693773356079872505e-02,6.828244559864961316e-02,5.665700005551776997e-02,8.234867382667154789e-03,3.472064852345119797e-03,-1.845937510205977738e-02
-1.102398962940654981e+00,-1.073236497967661851e+00,-1.049103381741738339e+00,-9.483873097120067153e-02,-1.293639071041643718e-01,-1.426239596742622795e-01,2.946927941859465716e-01,3.075004819852800719e-01,3.148130461809066638e-01,-1.204089583409018588e-01,-1.180859303057126691e-01,-1.317810901427593495e-01,5.177832811148960768e-02,5.801585222872548964e-02,5.981263979181727919e-02,-2.869191757806459006e-02,-4.471517297638201438e-02,-5.102077476353759217e-02
-1.089583860108467084e+00,-1.064575863765889308e+00,-1.011318086122339421e+00,6.400435465312058481e-02,5.809293865597169731e-02,1.721942735019203058e-02,-3.152203755162274329e-02,-3.788716385450177637e-02,-2.944699525077119212e-02,-1.035811706351190409e-01,-1.329839704386772958e-01,-1.590232154154780086e-01,1.703550534429108254e-01,1.915691174461962576e-01,1.823402244296270791e-01,-9.513206480972993817e-03,-1.407724777273666392e-02,3.419757061315203397e-04
-9.360797997412810822e-01,-9.396084649731116789e-01,-9.466966369147810090e-01,-1.844702954374283915e-02,-2.330101306834035831e-03,2.111728000944249409e-02,-9.996998309564965324e-02,-9.569844637535891707e-02,-9.155245420567387216e-02,4.477693264476377902e-03,9.540535081220687455e-03,8.361016351691778759e-03,6.446498513670964603e-02,4.912768414967656760e-02,3.833132416217996385e-02,-1.431815369273533277e-02,-2.091728254487929331e-02,-2.946008532322007267e-02
-1.011509882584319397e+00,-9.697364311976253148e-01,-9.307622144851076529e-01,-7.498680676778235465e-02,-9.010814790809851260e-02,-9.116498834365126258e-02,-5.254280752359273901e-03,3.078839908618169734e-04,1.661382128397830352e-02,1.317019693287304061e-01,8.955106408066103307e-02,3.731400478246732488e-02,-5.392969207460022313e-02,-5.111706652800074302e-02,-5.554722712575168447e-02,1.412891677685180515e-02,2.122202190388405851e-02,2.363336497332487948e-02
-1.021814097897794982e+00,-9.698433729745922216e-01,-9.267308919979918569e-01,2.070095687558950667e-02,-2.783727778730007985e-02,-5.448397494637512162e-02,3.208035031552927685e-02,2.076551414663249662e-02,1.567122335603154601e-02,-1.612356154650669560e-01,-1.592230051022551218e-01,-1.589615680266681652e-01,1.274424029440273665e-01,1.359366557568400524e-01,1.321252330893582794e-01,2.973978587149416711e-03,3.350519121025664904e-04,-7.520643430520486915e-03
-1.332457786849174486e+00,-1.223161613147063065e+00,-1.086014692482203614e+00,3.151478530826742341e-01,2.212674929114676059e-01,1.321198842718822875e-01,9.777204105884441943e-02,2.435747022240909720e-02,-8.050269503133983262e-02,-1.404440099349754389e-01,-8.379689371789372787e-02,-1.198067765118404106e-03,7.569714258106809146e-02,7.102368670198631884e-02,2.854890823694569701e-02,-1.559392438491434899e-02,-9.578386509186244749e-03,7.156965635548576815e-03
-1.483620566513851990e+00,-1.431294049518157419e+00,-1.329536481487274768e+00,5.188677663552059283e-01,4.354835871027271099e-01,3.159138393375194309e-01,-7.276109650899729997e-02,-8.032748479438388267e-02,-1.132375346926198373e-01,-8.339261633004965701e-02,-3.918153185397298122e-02,2.443718769751389991e-02,1.279802078680886135e-01,1.558786793728242359e-01,1.654855097190255919e-01,-6.886250795075704936e-03,-4.041735428003336711e-02,-6.295565182880571986e-02
-1.522824473807371959e+00,-1.456581896258364317e+00,-1.342443242804358672e+00,5.382916450918514562e-01,4.004925131963145701e-01,2.445535895502840285e-01,-7.767227006842686299e-02,7.674358830775703487e-03,3.239992184374245604e-02,-1.761422174086519910e-01,-1.207569488374959921e-01,-3.545749251752487730e-02,3.453186654440195680e-01,2.076534968263662739e-01,7.118698475392890024e-02,-1.067175747796301477e-01,-3.826785046061607215e-02,2.994246086746201255e-02
-1.344283414186506320e+00,-1.342292931395798306e+00,-1.319836350352106669e+00,3.702523426144446184e-01,3.778348827804794974e-01,3.675703783643815004e-01,4.653031534439212857e-02,3.811962953405070159e-02,2.043936038308999045e-02,-2.119210331564824468e-01,-2.304042746415494447e-01,-2.152578643283752646e-01,1.390008856235203649e-01,1.671231355835411658e-01,1.532431188861358706e-01,5.408247844237674485e-04,-1.029810787072353226e-02,-6.101768947342178263e-03
-1.413300161042867487e+00,-1.323167150329502162e+00,-1.161094534790029664e+00,3.950712581234560594e-01,1.459773172435888111e-01,-1.576783278975405211e-01,-2.228538752940133205e-02,2.182621215858960573e-01,3.786024109039652918e-01,-7.185135843979828518e-02,-1.614946125845332925e-01,-1.261827371921429020e-01,1.373469996305281271e-01,1.309464723650193285e-01,2.279098952345942619e-02,-2.482249417330192193e-02,-1.038174770980003318e-02,4.368807423489894787e-02
-1.306703828394270017e+00,-1.267534878451690661e+00,-1.210364003152885948e+00,3.034272829975088737e-01,2.799191772938705580e-01,2.444495762806021544e-01,8.026758146868206989e-02,2.518643938542322082e-03,-5.591149892086358375e-02,-1.612943197868237089e-01,-1.084379814090986049e-01,-7.200140727472208180e-02,1.367725181850786842e-01,1.007376490446202921e-01,6.458945203359001130e-02,-5.237547368512135426e-02,-7.125741470174430311e-03,2.930243977184289472e-02
-1.326691545704377972e+00,-1.115781953780900393e+00,-9.648034931238714806e-01,3.219939983184970655e-01,-2.623644810855764453e-02,-1.713541111104066872e-01,1.614528583222600219e-02,1.377144639065381870e-01,7.986675879322674421e-02,-1.114311086300766307e-01,-4.864440520943952989e-02,3.258213139372536510e-02,5.363375780948249905e-02,-5.646256608185165615e-02,-7.150061148997423344e-02,4.648006837781969852e-02,1.095271720160358175e-01,9.530911493123873923e-02
-1.607293012443348657e+00,-1.607226335003905771e+00,-1.548624918931496008e+00,6.860499555548019712e-01,6.897844888325667112e-01,6.052694866153189857e-01,-1.103868401079075717e-01,-1.060577017760543084e-01,-6.514237583907900309e-02,2.593735301923975195e-02,-1.221465865407550533e-02,-5.937375643645613488e-02,5.578002621934287364e-02,7.629303604671766603e-02,9.251709705607377709e-02,-4.988097572086980236e-02,-4.040549413545724278e-02,-2.450869338471684325e-02
-1.539930322209404956e+00,-1.559238861381945673e+00,-1.544072758445993232e+00,6.615954259740555177e-01,6.569606929179672150e-01,6.090102507923654818e-01,-2.728044785220304358e-01,-2.127265983733413468e-01,-1.440189782899375104e-01,8.806413055030135051e-02,5.169683847439247165e-02,1.257300408979332429e-02,6.189760053881775137e-02,3.128280558982506065e-02,1.008948310295712525e-02,1.393630329216294719e-03,3.221194392808134077e-02,5.656673962083812179e-02
-1.418947726295676892e+00,-1.307897228667910250e+00,-1.169046011648250394e+00,4.236892932592027372e-01,2.710815018663183529e-01,1.402408999393138789e-01,1.389599749048659599e-02,4.819935101188419641e-02,2.103395052723260050e-02,-9.641604115463225932e-02,-6.978788620743499316e-02,-3.171225772398726661e-02,1.592512856556890233e-01,9.151739803199721024e-02,5.249216106368304047e-03,-8.133653265646673125e-02,-3.299526552523875111e-02,3.434952900689088040e-02
-1.338012430634098138e+00,-1.264670194895488375e+00,-1.137732209508178327e+00,3.335454222699170135e-01,2.187278101134524921e-01,9.046444786495910773e-02,7.846502590412722522e-02,7.487377548078560929e-02,3.084971312517420863e-02,-1.696021295213256397e-01,-7.724706383335494531e-02,-1.210625466085000351e-02,1.470945513375460090e-01,4.391297920612058370e-02,-2.110307769887560803e-02,-5.140519610777850856e-02,4.486132067838952651e-03,4.971265517876428258e-02
-1.516381723686729410e+00,-1.508491325328878974e+00,-1.433238941804787947e+00,6.264453620538726897e-01,5.853775168102786086e-01,4.567504284299226391e-01,-1.630041053435070941e-01,-1.024470409212537986e-01,-3.951724676697741107e-02,-3.074371306076171748e-02,-6.459309707023232205e-02,-4.252305488579771059e-02,5.465158710755865790e-02,4.340659268858519659e-02,-2.847775597671488301e-02,2.925273314790623885e-02,4.693151259857025748e-02,8.715517367391538428e-02
-1.302952789093782204e+00,-1.226012043002816743e+00,-1.123039668079347742e+00,3.376826391484582524e-01,2.458581379622465091e-01,1.318422224956795341e-01,-5.062474277042623705e-02,1.893693996735170641e-03,2.972955310423390507e-02,-9.343389916544973806e-02,-1.209569157773299070e-01,-1.138480817264955619e-01,1.230409370565996030e-01,6.581444747253845096e-02,-5.796777442923242707e-03,-1.359968749879294364e-02,3.348341546071738339e-02,8.117938059203103074e-02
-1.569559146466418476e+00,-1.578437181923215915e+00,-1.552275840777666449e+00,6.649477010772070207e-01,6.726061396896535483e-01,6.305155639763283526e-01,-1.597392164560977323e-01,-1.532818188325736075e-01,-1.283094545729022706e-01,6.194394435712904240e-02,3.057380781419284654e-02,-1.382851220643115803e-02,3.130685710013238893e-02,7.024652290756762396e-02,1.241502959665556349e-01,-2.871322415912186052e-02,-4.155465335523592096e-02,-6.013194001740598121e-02
-1.539631828767265453e+00,-1.503964663529667511e+00,-1.437202198999799396e+00,6.763096477425329933e-01,6.122697595546914284e-01,4.972811877210723264e-01,-2.650719414164114940e-01,-2.346292706921459803e-01,-1.733393922104885243e-01,4.777157010625027872e-02,5.852588636828988389e-02,5.341790934529812990e-02,6.570770884133998735e-02,1.794018025082330658e-02,-2.188783955943116033e-02,1.518289615498050367e-02,5.006788793858723413e-02,8.188455282393952706e-02
-1.506940301399632531e+00,-1.454342943878729422e+00,-1.350809929965214762e+00,6.320929626994002959e-01,5.044617375254089042e-01,3.295458933990426109e-01,-1.391718960639764524e-01,-4.624639302306284006e-02,1.879225277574515102e-02,-1.322359804396440741e-01,-1.174090149739469569e-01,-6.685360723066077759e-02,2.766414990744029967e-01,2.216729283537315909e-01,1.477993187894509064e-01,-1.302700701443604836e-01,-1.080508648959420254e-01,-7.840340141761820147e-02
-1.627638704516130241e+00,-1.570303349150474759e+00,-1.498329995638139955e+00,7.247379028195279904e-01,6.487364581266192864e-01,5.666088521856483817e-01,-1.329240048232507299e-01,-1.264803522600365382e-01,-1.063526897976552477e-01,-2.800822042359221720e-02,-4.168058580296569310e-02,-7.776943135058231316e-02,6.430350525434311293e-02,8.941598395586437820e-02,1.022170381265975203e-01,-2.773345578349697429e-04,4.353518335435878307e-04,1.371293308152971187e-02
-1.598937676173973088e+00,-1.596454746167415228e+00,-1.563594486365846858e+00,6.964013889201614571e-01,6.768208693600930026e-01,6.127338619978281997e-01,-5.845445610660759961e-02,-3.357180294821532351e-02,-3.589544193292289360e-03,-1.969249034266180864e-01,-2.069151328659535050e-01,-1.861790598106681238e-01,1.407865162090857769e-01,1.455227624719076240e-01,1.194826809804336309e-01,1.739181710683303586e-02,1.480206434401736514e-02,2.129163268792007985e-02
-1.628101167106176028e+00,-1.654079954212026138e+00,-1.643666941976263951e+00,7.351689418935545284e-01,7.806222258237813794e-01,7.609834635658072610e-01,-1.331425618785376519e-01,-1.617932402000417103e-01,-1.501719409117367454e-01,4.480707206973993939e-05,8.877309718315906650e-04,-1.669987847110869505e-02,-3.163458154006244805e-02,-1.988371125695678754e-02,4.702390590513291779e-03,5.792424460183936974e-02,5.446368328611034260e-02,4.502408304727447547e-02
-1.307989151488826440e+00,-1.291719160528182364e+00,-1.234739225912895311e+00,3.029550763292266913e-01,2.703989794054045270e-01,1.998646802992581628e-01,3.488437562864968311e-02,5.754240508689906913e-02,8.322350408840728520e-02,-8.830148797232541258e-02,-1.205680779251132317e-01,-1.579515170501435140e-01,1.338992552239225697e-01,1.630319703568357259e-01,1.806017144240261718e-01,-7.536073992642118580e-02,-7.861970386525238275e-02,-7.094655701604059284e-02
-1.627790035369843125e+00,-1.634095860085234220e+00,-1.624572557788154459e+00,7.330776303562109852e-01,7.095822157133268027e-01,6.720488735988531248e-01,-1.433048533466139141e-01,-9.692269886588150696e-02,-5.398915309505035454e-02,-3.965641276843720475e-03,-1.538091699937737047e-02,-2.921477195783147435e-02,1.113244887361827529e-01,1.005193809676282329e-01,9.806769977353115009e-02,-6.909331492361187044e-02,-6.350915724475975077e-02,-6.219664001427813865e-02
-1.731590207202252207e+00,-1.773226360088915543e+00,-1.772892706240765781e+00,8.721087296771444786e-01,9.152081043749180633e-01,8.926195605999525107e-01,-5.672753220185648010e-02,-3.972052889771804374e-02,-9.054453066644676390e-03,-2.212073889618123290e-01,-2.573766421380702663e-01,-2.620612859087466107e-01,1.841290564412991493e-01,2.062031199013353300e-01,1.939558170751574662e-01,-4.641333776094343222e-02,-5.082840492487288725e-02,-4.234844954006258128e-02
-1.651255571525906518e+00,-1.657404283072570594e+00,-1.646531182025218865e+00,7.435067771168550887e-01,7.386285445412332784e-01,7.110327968631614537e-01,-1.672224966111055255e-01,-1.585112744319404354e-01,-1.354468191070614946e-01,1.314086258323909906e-02,4.683962339626077109e-03,-1.612097641122384878e-02,1.429966221036766960e-01,1.585638018936234295e-01,1.730504693395800431e-01,-8.091219013705894247e-02,-8.575316008106824428e-02,-8.582183074059281103e-02
-1.400734562216085388e+00,-1.399366408728853095e+00,-1.376928804413025453e+00,4.170189208364693534e-01,3.950854518618530653e-01,3.584553837280426980e-01,-3.800305493140404556e-02,-1.779615231166256986e-02,4.863564223251087663e-03,6.714116453601173123e-03,-2.864763600311211883e-02,-6.648412348905655134e-02,2.284985621979930548e-02,6.345019938738077903e-02,8.368990185937974502e-02,-7.717951900956519264e-03,-1.262894161580185859e-02,-3.520789555816181571e-03
-1.510113831543627327e+00,-1.538816027582290191e+00,-1.544229132134884885e+00,6.047991923432280981e-01,6.350606295435323734e-01,6.358543150515872933e-01,-1.370160011891952412e-01,-1.300690999474937437e-01,-1.195906605001882672e-01,-5.134643823716959071e-02,-6.732567557238178235e-02,-6.891769419782659001e-02,1.037310204804441222e-01,1.201894920771517522e-01,1.221610962799915545e-01,-9.882784292004563251e-03,-1.890057618087686783e-02,-2.517073624914711524e-02
-1.696960008832318012e+00,-1.668433295158231466e+00,-1.570161817608991983e+00,8.834898709725289567e-01,8.586243501096399999e-01,7.107334983287718622e-01,-1.535910577059721172e-01,-1.807533824102147690e-01,-1.489874412777588975e-01,-2.145510279940092691e-01,-2.176881208542976176e-01,-1.801116545001275604e-01,3.098143897377180211e-01,3.632606534559931766e-01,3.228226306403113588e-01,-1.280824004230597946e-01,-1.549049152557984421e-01,-1.342098795841714376e-01
-1.294128422419886792e+00,-1.277484134514277780e+00,-1.256474296981004990e+00,1.640108822336342198e-01,1.491659960004771968e-01,1.601038540636377516e-01,1.554084668428665494e-01,1.633716830430226585e-01,1.379842701465430477e-01,-6.439202303694903373e-02,-7.193750615118209291e-02,-8.730624459337919807e-02,8.919092542957365866e-02,4.400099704912426718e-02,1.391454724918695512e-02,-4.998045595206241504e-02,-7.038424197907923278e-03,3.183236040024250979e-02
-1.425560419756662034e+00,-1.370737530314682706e+00,-1.270704759068107537e+00,4.404268090669631319e-01,3.561625781165911331e-01,2.323521852726306847e-01,-1.745752981060700107e-02,3.291772651393288368e-02,8.651060053673133299e-02,-9.596032661483193393e-02,-1.343080727690209586e-01,-1.873664503833251394e-01,5.995931813200400251e-02,9.421836139217815154e-02,1.236813041862920570e-01,3.876196417074775219e-02,2.185985117389890181e-02,1.560508717873868717e-02
-1.323830653756988163e+00,-1.266280617228097594e+00,-1.142242517663802692e+00,3.349350073788620596e-01,2.300031920852958489e-01,7.251563214451497985e-02,-8.537154127270660947e-03,4.603108600476304990e-02,6.941255528435397171e-02,-1.294475621114554442e-01,-1.529355870879374191e-01,-1.353763942157447941e-01,1.495517235457370642e-01,1.754179777372383842e-01,1.671515141145742955e-01,-2.258059747025693495e-02,-3.215448328047453008e-02,-3.138480636416358244e-02
-1.263440193785553056e+00,-1.250704754314064138e+00,-1.216866103720200432e+00,3.251869029335253680e-01,2.648277669291287939e-01,1.907368035284132957e-01,-4.701699478889714845e-02,4.654359406758330417e-03,5.610051365110039351e-02,-1.617283447974478261e-01,-1.303883984815049635e-01,-8.715963459192517526e-02,1.962876984089325094e-01,1.425091976104050917e-01,7.046995621927179543e-02,-4.919849523395563445e-02,-3.083280904414341730e-02,-1.323342824386449998e-02
-1.605841011569544730e+00,-1.603695290884306068e+00,-1.571689166099949908e+00,6.354565195356546292e-01,5.999577086008844873e-01,5.427522078209111589e-01,5.094396710614196994e-03,3.650941920449033568e-02,2.938972226604154650e-02,-9.133763732995492379e-02,-9.786596093209537495e-02,-6.680280061761541266e-02,8.891589665173675605e-02,1.025004670267848084e-01,9.725664099679398600e-02,-3.210210675584652257e-02,-3.725368551788766497e-02,-3.078672186674400943e-02
-1.516951137430206931e+00,-1.521006766277801736e+00,-1.469043564939946922e+00,5.510050155269817784e-01,5.396157211080845340e-01,4.548053824530461919e-01,-5.822687668170635489e-02,-8.853750785299031867e-02,-8.792036716732665180e-02,-1.310024218807035457e-01,-3.102641826751001072e-02,4.845490190566264371e-02,2.050196119286950558e-01,1.319706092172707179e-01,6.356619220288939331e-02,-4.966090647019068272e-02,-3.086527128342548762e-02,-9.747361946310040270e-03
-1.593764953638433735e+00,-1.617022999539208694e+00,-1.585448282230786932e+00,6.064403131211821840e-01,6.199165439760073726e-01,5.623758478913268855e-01,-5.094941967034555264e-02,-4.756892277129193963e-02,-4.829742423806338003e-02,-7.266256159677844662e-02,-2.103592867196276556e-02,6.037780178511048534e-02,1.309479800366625535e-01,5.857716396860203345e-02,-2.807068224312882221e-02,-1.974596285155387140e-02,7.347730596212676685e-03,3.922368859823604365e-02
-1.454314156463264229e+00,-1.443862488564706892e+00,-1.416996804089854178e+00,4.450315984206092423e-01,4.418407008998430086e-01,4.308180457423052001e-01,-1.599832310110807509e-02,-3.825317323122251478e-02,-6.078768192960450067e-02,5.936253256228742059e-02,5.445278432250219569e-02,2.975992485746856153e-02,-4.831351125683602810e-02,-3.759978248788649335e-02,-1.966291104825453745e-02,1.442215579439569580e-02,2.355899319563590708e-02,3.696868128012260196e-02
-1.591357231326427479e+00,-1.590445812518804347e+00,-1.564397315414211675e+00,6.701673482743091270e-01,6.527868829990076671e-01,5.984840904249030258e-01,-7.203781186555817395e-02,-5.440225801047311044e-02,-2.715341502997455081e-02,-1.008632213944972433e-01,-9.998108555115625684e-02,-9.260517768740626765e-02,1.020490070931245469e-01,9.834325956439973759e-02,9.165777935854628466e-02,-7.742442200651534871e-03,-6.129375729026881672e-03,-5.860130792829653344e-03
-1.529912032287768620e+00,-1.545674907325127689e+00,-1.542123026802464381e+00,5.216961780002039584e-01,5.346049512564903239e-01,5.301026885413858691e-01,1.328345297231014847e-02,1.849633013562978004e-02,1.340255971569912635e-02,-6.264412391651334733e-02,-7.841997576171198803e-02,-8.768118015503059692e-02,4.923385140932232118e-02,6.102214730195068548e-02,8.094538671491000037e-02,8.565881820268435656e-03,1.015441317816678270e-02,5.494632234821317067e-03
-1.670283895527410634e+00,-1.656516344102323401e+00,-1.628591460686810377e+00,8.030344706709476865e-01,7.558935378494394675e-01,6.765678155201051425e-01,-1.416186727886219188e-01,-1.107834559046409068e-01,-4.376682507523924071e-02,-8.853453706816992452e-02,-1.062351330973951846e-01,-1.357026045731758168e-01,1.346503530611645738e-01,1.790112367936581572e-01,1.991908791180759253e-01,-3.704511141728657891e-02,-6.119542734346081897e-02,-6.755686384448172932e-02
-1.617888804055368057e+00,-1.643203801904828287e+00,-1.631168573105628017e+00,6.880087791551796617e-01,7.213607133488839640e-01,6.966627317824789500e-01,-2.951827491061225633e-02,-4.320298641196880507e-02,-4.087432021911244218e-02,-2.986911778316360677e-01,-2.985148187319515700e-01,-2.725733099264104897e-01,3.265934825595883662e-01,3.453423370835247974e-01,3.296948682622312665e-01,-6.826935028766542568e-02,-8.159848455352336494e-02,-8.161023251405920276e-02
-1.581384699952238959e+00,-1.588742842676944322e+00,-1.566755516697732054e+00,5.748224554207235215e-01,5.769877605943807275e-01,5.477159622390896931e-01,6.579149526905971046e-02,5.154301679532524716e-02,2.907268206879920838e-02,-2.405884926189473527e-01,-2.202701101857723054e-01,-1.797879008124502742e-01,2.226201500728572646e-01,2.518225215461608046e-01,2.609434881030043285e-01,-4.102617981220856719e-02,-7.116583980809686183e-02,-9.106591896549924570e-02
-1.733238792561029307e+00,-1.734488095752538594e+00,-1.708650907474215774e+00,8.785367933669706586e-01,8.663783887927618554e-01,8.055637540652219597e-01,-1.233348755445290851e-01,-1.149236868289133101e-01,-8.208238938917399030e-02,-8.134678298947779773e-02,-7.117656993535137477e-02,-6.015045163666450645e-02,-1.585122073128612807e-02,-2.034611291346914708e-02,-3.341333587884150191e-02,7.558455899104024600e-02,7.483967774945504692e-02,7.893873496359674058e-02
-1.461004505366640283e+00,-1.488987486098684254e+00,-1.498095092422478292e+00,3.362492760514317336e-01,4.033650102764274048e-01,4.535057122124862006e-01,7.726781762132359233e-02,3.159662410627275819e-02,-2.178172856054413214e-02,-1.202119274560524004e-01,-1.294297944509639753e-01,-1.097314609609755520e-01,2.204037063925674556e-01,2.414339538997868351e-01,2.236864567161943596e-01,-5.247250179440275664e-02,-5.779414025597257032e-02,-4.745685903273059308e-02
-1.206951627871906796e+00,-1.194147246747706559e+00,-1.168365112512343540e+00,2.027288099459659543e-01,2.220703495839983777e-01,2.242074210898745701e-01,5.995386293047108572e-02,1.763290338008148203e-02,-3.033901722544936688e-02,-2.002313789387816512e-01,-2.279899864272249277e-01,-2.017907683284529963e-01,1.754824795866225251e-01,2.395690052008590809e-01,2.392201868854800240e-01,-3.090947311741240947e-02,-5.708090477715991456e-02,-6.289083543395508624e-02
-1.344786079907279719e+00,-1.333797677710825802e+00,-1.255127768808203648e+00,3.715777032944491132e-01,3.636372896338110339e-01,2.595961614291730779e-01,-1.288054126567289570e-02,-1.306373730821222719e-02,9.731837970152071651e-03,-2.256602004708297970e-01,-2.244661684163993809e-01,-1.730601667205588501e-01,3.137113460380444030e-01,2.900205606068987363e-01,1.770292324447956811e-01,-1.018666517746419642e-01,-8.225381192580180634e-02,-1.811061238728896641e-02
-1.534756010747924559e+00,-1.526078757155713062e+00,-1.490148633874115669e+00,5.695483543169655993e-01,5.538410017521027129e-01,5.083233339880757207e-01,-1.045717529524596845e-01,-9.630777192638927120e-02,-8.865684036567701709e-02,-1.931279464505367832e-02,-4.644933668049534836e-02,-6.083834909558614307e-02,1.148627965891249048e-01,1.504768895972960485e-01,1.669506687343174089e-01,-2.556231802740828452e-02,-3.532015657981355666e-02,-3.551203495762492862e-02
-1.309243392590692556e+00,-1.301022609607294767e+00,-1.280199461792233873e+00,3.149591355728256215e-01,3.029298014887545354e-01,2.928470400861346579e-01,5.511288602609285686e-02,4.697029581430673534e-02,2.278845901801829915e-02,-1.159800698950055192e-01,-1.407466038245610562e-01,-1.533305285207018365e-01,1.334680997243718470e-01,1.592029367277742191e-01,1.633073612239228645e-01,-7.823166922989592542e-02,-6.726880128774882783e-02,-4.536455879527364482e-02
-1.289834004060005368e+00,-1.287441414405411377e+00,-1.275248975620374647e+00,2.426677383008226940e-01,2.102869053897930551e-01,1.961612436636209211e-01,8.176689282598267883e-02,1.607081994287560267e-01,2.081094366366774140e-01,-1.074977622239344233e-01,-1.765396410885110290e-01,-2.467755691495756576e-01,1.298475020505608646e-01,1.228984875411354705e-01,1.255454268812843943e-01,-5.684800070711824166e-02,-2.983829526442145427e-02,-7.739662853050061596e-03
-1.332461785773929819e+00,-1.326099970066290545e+00,-1.294300579674668938e+00,2.778373605821773396e-01,2.634255539096066467e-01,2.272391707618180434e-01,2.730566908835630260e-02,4.972028094610211196e-02,7.240608011821891843e-02,-1.856433758762605218e-02,-6.273885984448128450e-02,-1.089953648703610167e-01,8.303018636063094760e-02,1.183335569440519403e-01,1.390573752153790865e-01,-3.703997016532158820e-02,-4.256223605081125433e-02,-3.535339299083179593e-02
-1.343042812168610656e+00,-1.322439579787925368e+00,-1.275885858088577240e+00,3.020821962817021866e-01,2.823337745563015422e-01,2.284025546196602197e-01,-2.174183543204064300e-03,-7.717360781206922867e-04,2.056786740980101613e-02,-3.285379545170082766e-02,-5.469778562394994603e-02,-8.883189845172656529e-02,6.471672904016628758e-02,5.157026607682279468e-02,3.420158792035020434e-02,1.142586618825342654e-02,4.413260036697022604e-02,8.164381393704328582e-02
-1.639880846368976242e+00,-1.644610374073097958e+00,-1.595377836976623609e+00,6.352420183394590358e-01,6.459109810164028742e-01,5.681016794948656745e-01,3.305491624408989776e-02,2.886967654541604603e-02,7.397122374001821599e-02,4.136870199275733545e-02,1.243646367499937760e-02,-5.071069706772832197e-02,-1.368513608758410438e-01,-1.052436016531291679e-01,-3.335855894605151140e-02,6.730776596633580855e-02,6.283566696038279942e-02,3.751115389734783340e-02
-1.457690727845340151e+00,-1.446062889672071972e+00,-1.402055991559967074e+00,5.072269248010518039e-01,4.648676250061344883e-01,3.729482254373330252e-01,-1.221976715457457202e-01,-4.969022381640710029e-02,3.661190441714152338e-02,-6.410367715130400879e-02,-1.240361519053311545e-01,-1.647592647951929001e-01,1.802234692470885413e-01,2.086997520706058984e-01,2.044696134008751609e-01,-4.327363621312393244e-02,-5.362824345262839215e-02,-4.710001719303131412e-02
-1.395630563464616225e+00,-1.385217918488309774e+00,-1.340942538668060680e+00,3.997524881783278694e-01,3.947541313994953338e-01,3.729269036791537650e-01,-1.204592334502022598e-02,-3.999535895256686735e-02,-1.133989330484792279e-01,-1.835390245010651289e-01,-1.775538699046590729e-01,-1.057155041101337373e-01,2.274489244031932533e-01,2.473534835682627275e-01,2.096356362459904366e-01,-3.579486601351625219e-02,-3.918953450529947397e-02,-2.239270849073636549e-02
-1.285667490710562078e+00,-1.254237671452940628e+00,-1.166701553066153307e+00,2.238039496931948924e-01,1.526974189267032156e-01,3.738764443017621869e-02,4.845089767574252415e-02,1.121127295033263194e-01,1.349442379587284524e-01,-6.975448156397152932e-02,-1.272577840512987279e-01,-1.190650590507258272e-01,1.378957824172960811e-01,1.795693195525682462e-01,1.564112431102510914e-01,-5.462878792699736585e-02,-6.279993407745235179e-02,-4.290285410827773122e-02
-1.382465044221358186e+00,-1.384559508671069805e+00,-1.348077486957462323e+00,3.708846098301872285e-01,3.374950961129433158e-01,2.410933041165458368e-01,-5.170032008045842564e-02,2.019517083986255290e-02,1.389148435929581094e-01,5.228087282142226955e-02,3.106589543035726073e-03,-8.803987861207636378e-02,9.409930253351270896e-03,1.901721603697677579e-02,4.123922053585654668e-02,1.746730507884714911e-03,4.866398423153965071e-03,1.495607596892359857e-02
-1.406710166191606159e+00,-1.431030758875363018e+00,-1.420939249874489718e+00,4.742451765470966918e-01,4.834058945397594065e-01,4.608016353298930445e-01,-7.648785534809197928e-02,-5.728178095793973884e-02,-4.927900286922581169e-02,-3.016083301831604668e-01,-2.795175492507046555e-01,-2.213556096209332857e-01,3.880649021709018931e-01,3.586473602172946529e-01,2.894482021059536780e-01,-7.739510812559087516e-02,-7.413571415320059643e-02,-5.860777978613805617e-02
-1.486134373842543432e+00,-1.488314526968143925e+00,-1.474432439850694054e+00,6.118231749941740460e-01,6.089809084348428714e-01,5.779434546172287357e-01,-2.435561056711927630e-01,-2.417266009523212633e-01,-2.193710756809684193e-01,1.145599845609722792e-02,-2.390021987780214033e-02,-5.602042744950468806e-02,5.764754397207445813e-02,1.121665354366389311e-01,1.537607594353200269e-01,4.898870549551549713e-02,3.297835520670226728e-02,1.825444050274067226e-02
-1.648160641939479198e+00,-1.665367305513625329e+00,-1.649707933615916833e+00,7.120990972867862201e-01,7.233519906310675873e-01,7.004350398574020753e-01,-2.033860852927042370e-02,1.661522662501597677e-02,3.741869523683472726e-02,-1.292055363139229529e-01,-1.870639485618554032e-01,-2.126776963560567113e-01,1.074477343520729433e-01,1.524947904951808875e-01,1.730390512075675735e-01,-2.164784416385378066e-02,-3.988311638742988302e-02,-4.839771016802505571e-02
-1.594504747472613282e+00,-1.625617277767804625e+00,-1.625085900699802632e+00,6.528217895490674438e-01,7.074942938618554722e-01,7.226263963047155903e-01,-1.195115485994666660e-01,-1.231752096280775977e-01,-1.186396464147602553e-01,-5.074387641644049346e-02,-8.481094624849808139e-02,-1.147049177654315411e-01,2.433598769814535323e-01,2.284381839451644081e-01,2.027781324419494213e-01,-1.312230443763699184e-01,-1.021781078493252809e-01,-6.686134501345086800e-02
-1.434384944271508422e+00,-1.441171271064315196e+00,-1.406382835421854161e+00,4.434956118513437850e-01,4.525274648875972638e-01,3.903101201099437589e-01,-5.119197020305175233e-02,-5.744289988496371208e-02,-1.634687295740501825e-02,6.386294550004370865e-03,-3.083160979881264391e-03,-4.177310871906787099e-02,5.297772421497952411e-02,7.452400332281533535e-02,1.157044963828675888e-01,-1.711027140354622403e-02,-2.522272417637710928e-02,-4.141977434366908573e-02
-1.371785088881263048e+00,-1.360721298118745759e+00,-1.343774274151452008e+00,3.961445838084639570e-01,3.658093517320824550e-01,3.296002531569312000e-01,-1.409064687822748907e-01,-1.234718356846877946e-01,-9.148931970819899895e-02,1.198799079591218869e-01,1.042506246399335090e-01,6.760122146574153168e-02,-5.285658243331835954e-03,2.298599488807653163e-02,4.031566915469982082e-02,2.147545065076055925e-03,-8.723682731575851945e-03,-2.175191614885248117e-03
-1.411972981011503148e+00,-1.377186632398597066e+00,-1.307710257895139394e+00,4.397855059362721919e-01,3.697323263307371599e-01,2.661058362090632512e-01,-1.176476126157787461e-01,-4.562153211226682020e-02,1.297394411550235535e-02,-1.938499684845596677e-02,-7.601655625443290432e-02,-9.394821115672122303e-02,1.979976527707111855e-01,1.948902444918448329e-01,1.491471146741848441e-01,-8.861021715659579689e-02,-6.566820596701107571e-02,-2.646989149638201422e-02
-1.456270112867788180e+00,-1.469212539137507711e+00,-1.448912020678417623e+00,4.581200518572680624e-01,4.462314306056239799e-01,3.861928265717898268e-01,-1.715404046375917230e-02,8.943813691739077587e-03,6.548519216419045053e-02,-9.832778275645200072e-02,-1.118268251786154049e-01,-1.414461901548124678e-01,1.378641035714222585e-01,1.539149367888284770e-01,1.697602841424842857e-01,-2.407598448472829042e-02,-2.792250875173058616e-02,-3.098610873563107868e-02
-1.640350672916287111e+00,-1.620980313507302872e+00,-1.574738893825781139e+00,6.576553726639131625e-01,6.157178408407931736e-01,5.430158547937499192e-01,-5.356314026192815492e-02,-4.790572953162519632e-02,-4.265565513418163174e-02,-1.264929531694968246e-01,-8.488652342804026141e-02,-3.257571852197953949e-02,2.104798342023581625e-01,1.737373278889355610e-01,1.240417911116557664e-01,-4.735656045066771735e-02,-3.538894065436446607e-02,-1.686675205286917306e-02
-1.612508899078569424e+00,-1.638535340147875052e+00,-1.619114533999007621e+00,6.870531913937595325e-01,6.987668167205016712e-01,6.422908763467102267e-01,-2.934666913447115527e-02,-1.212333306833991708e-02,2.544247328951330933e-02,-2.212366484829117463e-01,-2.166091885735309808e-01,-1.961463755885818061e-01,2.705610476948276388e-01,2.680915736247207470e-01,2.435828330400989783e-01,-9.439656001770704852e-02,-9.948304105570679456e-02,-9.596870797805277797e-02
-1.343760641831949876e+00,-1.345219357811256566e+00,-1.341766318277931580e+00,3.480946809027167799e-01,3.487349754218964648e-01,3.521700415083822144e-01,-2.426957784334684079e-02,-1.645033111002441525e-02,-2.236446738196561784e-02,-3.019833631584054046e-02,-7.468419293694654459e-02,-1.034116895633957339e-01,6.244081678596666296e-02,8.636433496978729307e-02,9.958330449469185441e-02,-1.217862753319593275e-02,1.361431939142307077e-03,1.587420010274752727e-02
-1.314042972334120485e+00,-1.327977123620008637e+00,-1.342064723862931963e+00,2.785710584552824054e-01,2.903268369278684813e-01,3.155178511310745559e-01,5.294759912832077559e-02,5.313728007309603124e-02,5.213994488240290825e-02,-1.528281540658839033e-01,-1.830908448184345449e-01,-2.231356769372659088e-01,1.211469964172937203e-01,1.638860608976420163e-01,2.157074966170137165e-01,1.432218010854003319e-02,3.806390354871925456e-03,-1.810144990351968824e-02
-1.317560799807923955e+00,-1.312792213447187439e+00,-1.282181982140510490e+00,2.722930421266329670e-01,2.392461767723528809e-01,1.989513770729924025e-01,5.976261433914273336e-02,9.329758553917202879e-02,9.752368520287835185e-02,-1.378019896090222074e-01,-1.268961181372814384e-01,-8.346769496029719793e-02,2.033579352599693690e-01,1.924040340626433088e-01,1.370427750636741826e-01,-7.994265247260222418e-02,-8.517978658310697282e-02,-6.780842875770322353e-02
-1.525445642186484152e+00,-1.533590272746224947e+00,-1.524253973223417491e+00,5.382707206364616415e-01,5.188591025980184845e-01,4.796272654715470485e-01,-4.957134552755078361e-02,-1.067981202189015842e-02,4.055540832061658996e-02,-5.488179007817964306e-02,-5.912023649969247452e-02,-8.038042990048098468e-02,1.142059673725225738e-01,9.723750626949290154e-02,8.950696171191897810e-02,-2.235403193667945612e-02,-1.252997780236508873e-02,-4.927428746386602020e-03
-1.480187725974064339e+00,-1.505635594215402717e+00,-1.519211041919327654e+00,6.046173115466789705e-01,6.242690713892964371e-01,6.225820089686169290e-01,-1.829805429686078289e-01,-1.579020804454888960e-01,-1.144242412978188073e-01,-5.862311373241993473e-02,-1.041548519129856798e-01,-1.471846378596164961e-01,1.064993871975601775e-01,1.440051761316247791e-01,1.750728276643029324e-01,1.084233453291608140e-02,-4.435943945863998045e-04,-1.673182268640541898e-02
-1.242956012313569891e+00,-1.225199860066268132e+00,-1.199606452984967264e+00,2.063394617588245050e-01,1.768712471944401676e-01,1.485401059413266611e-01,1.377886595811626640e-02,5.605167789461457800e-02,1.018985037360433527e-01,-1.211491761537518141e-01,-2.055624694084846327e-01,-2.861302048263737463e-01,1.431868388454219931e-01,1.513035250610903770e-01,1.585976123443048336e-01,9.132123363994630247e-04,4.663054956698792219e-02,7.678028280882248646e-02
-1.482475419710691300e+00,-1.486399210931804715e+00,-1.462374160747288654e+00,5.433521206600753217e-01,5.345208476643172890e-01,4.978961611717203639e-01,-1.182262410763365162e-01,-1.163754759229567448e-01,-1.269466285734968669e-01,1.371595697370995431e-02,2.108919966462174944e-02,4.524947572730602524e-02,4.889346439706666880e-02,4.642765361108619482e-02,4.403083484125973335e-02,-5.096215318438128590e-03,8.679077613845778997e-04,2.244905783403873187e-03
-1.340180619923233785e+00,-1.291335738887849471e+00,-1.194382274372808084e+00,3.611067001296177637e-01,3.046577447092633228e-01,1.916445795118620898e-01,1.045815229023232306e-03,-4.899179612703139647e-02,-5.429673508831932977e-02,-1.570822987003660243e-01,-4.930820318138343789e-02,-1.030953267090759309e-02,1.469257324078394600e-01,7.618642611405369858e-02,5.169735713376050895e-02,-1.168662578380400517e-02,8.892962584184432515e-03,1.572582833773723821e-02
-1.461464253460987850e+00,-1.480667480733757868e+00,-1.463682760543196348e+00,3.933642867703111556e-01,4.156169904109984770e-01,4.146650977973107555e-01,1.254143793455223810e-01,1.336614516298595678e-01,1.282717469035803415e-01,-2.101147806504187754e-01,-2.124305943667204877e-01,-2.066977992189981128e-01,1.894931309405373521e-01,1.735930366965975358e-01,1.458437026400657976e-01,-3.653430554363676364e-02,-2.965300767985373440e-02,-1.831212362144833683e-02
-1.648043041908139328e+00,-1.599752175361731865e+00,-1.475616327235847569e+00,7.190673035154444559e-01,6.204544428203312423e-01,4.092176687574956562e-01,4.280078892474710461e-02,5.663009429821803942e-02,9.866216085937185021e-02,-2.745733748555296838e-01,-2.168082016003845536e-01,-1.308088467323359760e-01,1.413518374521000598e-01,1.077792586626226401e-01,4.644113101121714882e-02,1.959442202636122246e-02,3.187429979422497922e-02,5.224917238091550398e-02
-1.358845549007426046e+00,-1.330649197833402519e+00,-1.255374051044243933e+00,3.541031975849349700e-01,3.010527857968767207e-01,2.067610628371482351e-01,3.067462604557473840e-02,1.280728348965684722e-02,7.312645319547923274e-03,-1.196573810888548195e-01,-6.051022122148801141e-02,-3.415883466736881896e-02,1.073676728043969075e-01,7.991890644185105363e-02,7.557081842431397078e-02,-1.351819449125596720e-02,-2.523738491988062466e-03,-3.555285827613564257e-05
-1.719051647283210693e+00,-1.670076992886464495e+00,-1.559454268804567612e+00,8.196535747762617730e-01,7.260787254646717814e-01,5.281772274549175750e-01,-1.362908505986414054e-01,-5.382741572671761315e-02,8.339050612290889453e-02,7.925987710364920669e-02,-2.895582785037795204e-02,-1.607207520944233803e-01,-1.051013525425246314e-01,-7.328151860440300369e-03,1.089839901855370191e-01,6.185386940587623422e-02,3.438215640560658704e-02,-1.596380915843000992e-04
-1.390626323048635316e+00,-1.386051313112453887e+00,-1.370893522899501837e+00,4.305327063301600532e-01,4.088642616763573656e-01,3.842618259059079611e-01,-5.698704860586952664e-02,-4.277778008810557281e-02,-2.457734551476807583e-02,-8.471595564577177884e-02,-9.293653016815944801e-02,-1.114816171376909054e-01,1.567301140956230410e-01,1.591157492102346638e-01,1.573924314362114274e-01,-5.481485903962389494e-02,-4.612844081409631092e-02,-3.464298141751376986e-02
-1.616075493309778288e+00,-1.612068621007305191e+00,-1.548974990800819018e+00,7.127500944817043438e-01,6.706889538461132672e-01,5.363767909430173786e-01,-7.264933973823743674e-02,-2.705326923428074543e-02,5.171189782375609778e-02,-1.287104236679486036e-01,-1.431455596323991941e-01,-1.521722893414965971e-01,1.141698875206581670e-01,1.289825972368658924e-01,1.343347216307930747e-01,-9.253789437798648140e-03,-1.721146652419880754e-02,-2.111902463054776691e-02
-1.439419992753934174e+00,-1.368134227830587468e+00,-1.263633922306574897e+00,4.527345442738868186e-01,3.363417498461095390e-01,1.850768095203826069e-01,-1.054422768516082715e-01,-7.926974788128189620e-02,-3.436454436682980645e-02,2.782508273191582407e-02,8.745118518175945543e-02,1.138830520032573790e-01,9.565045375414180095e-02,-4.210742252739450853e-03,-8.071865623867420514e-02,-3.112561318855132028e-02,2.798702838975074964e-02,7.987133361982197421e-02
-1.472657889848942414e+00,-1.370607858467529194e+00,-1.195351090596584731e+00,5.353475070048717699e-01,3.501886884404293854e-01,1.339922337362842442e-01,-8.781523743427580020e-02,1.457546778142657269e-02,4.528419453529402422e-02,1.289350273441320499e-02,1.556835035569713310e-03,-1.845765496948140877e-02,-3.653679519237418294e-02,-7.749977949830316737e-02,-2.561900386738650420e-02,4.893409371879394593e-02,8.193045945837713895e-02,6.027268413401552088e-02
-1.527736718193643650e+00,-1.433460408299183531e+00,-1.291538409352580352e+00,5.654060919124921369e-01,3.695780522234796694e-01,1.489364886959933798e-01,-1.131652112875559078e-02,1.075712428720720648e-01,1.767101684103306314e-01,-9.963389915385645335e-02,-1.369735565310189473e-01,-1.543050884708216663e-01,1.130799630102093112e-01,1.152487132578439988e-01,1.173784203488020678e-01,-3.964512472593651610e-02,-2.182906206089995846e-02,2.936349622452758597e-03
-1.528961901548170133e+00,-1.491421976648642955e+00,-1.375869844233229111e+00,6.272950446547681524e-01,5.778325398006548541e-01,4.340987301868078907e-01,1.612696112663418446e-02,3.874130350707249287e-02,4.632117224429910252e-02,-3.133220731018864225e-01,-3.535340321120233331e-01,-3.096822811479663651e-01,2.799299905153508350e-01,3.008961087528371769e-01,2.406100741895381701e-01,-8.095465343458260743e-02,-7.242449059278849299e-02,-3.541123861466182604e-02
-1.399791313325382980e+00,-1.395050935024837235e+00,-1.348684744906485600e+00,3.119723961755536679e-01,3.272391538526443489e-01,3.127514773648188418e-01,6.231319619496391432e-02,3.698355255951573523e-02,-1.207148860266069566e-02,-1.735540847850504387e-01,-1.520899068771080498e-01,-1.025473619233460698e-01,3.291873111418656683e-01,2.722572172708577209e-01,1.827049957518740997e-01,-1.299324071615547416e-01,-8.920455200725745104e-02,-3.205968506268693646e-02
-1.260248165895134997e+00,-1.241510500594998900e+00,-1.195715635529288834e+00,1.782276280557792414e-01,1.208888291207841081e-01,6.705257338211376150e-02,2.412251756906035743e-02,8.822493060703816281e-02,1.328871339237371330e-01,1.836348843030986833e-02,-7.945318564073341680e-03,-5.526449112884195686e-02,3.088132272286888899e-02,2.533357705498839180e-02,3.460506464400968374e-02,8.785821650946613534e-03,1.510325861380736739e-02,1.649893483288069479e-02
-1.321825826291878725e+00,-1.293849443607012484e+00,-1.253049890276760836e+00,2.115030229345211399e-01,2.018954734462662104e-01,1.883424460130760647e-01,1.402694193424320335e-01,1.038797420139776495e-01,6.083527308024244684e-02,-8.628848562654733989e-02,-1.155849948927354237e-01,-1.255636880375025910e-01,5.934984592834011835e-02,8.913192393723429197e-02,9.824750523279117409e-02,-2.840343807615652253e-03,1.466077822196777680e-02,3.127955053919867501e-02
-1.666324677040998514e+00,-1.672386170472239142e+00,-1.632888356815093367e+00,7.327068722662984923e-01,7.455680333103257285e-01,6.888210380756371043e-01,-7.359401869425280518e-02,-1.113309223045495511e-01,-1.242917014000797099e-01,-4.399278407169536498e-02,-2.221364384315023879e-02,5.147772282704833613e-04,4.832510876970920466e-02,6.757052388204595750e-02,8.027576304379586969e-02,3.154042019666516809e-03,-6.992436825638660182e-03,-1.227588953018711633e-02
-1.571241614765622741e+00,-1.491183781042727752e+00,-1.332062129170807907e+00,6.400393376344832852e-01,4.936433824889447375e-01,2.672843577683172711e-01,-4.534077418022171638e-03,2.965098667454297079e-02,4.896503450327474583e-02,-1.968373027575216760e-01,-9.702376683830089832e-02,1.232211862414977870e-02,1.703797350782340625e-01,7.227696834647254209e-02,-8.868156266489748973e-03,-3.764330487026849859e-02,-7.235036832252462503e-03,1.246586792989395898e-02
-1.511185581069908190e+00,-1.462522692456933671e+00,-1.358624378009949174e+00,6.181892604195809993e-01,4.912702608038287955e-01,3.192894759805845473e-01,-1.244552224961990305e-01,-5.434358051644855997e-02,-1.937120422395244637e-02,-1.708848248543326787e-01,-8.655800951377495833e-02,2.175474192651130276e-02,2.457295835806053708e-01,1.015287586762338157e-01,-3.019068994663330618e-02,-5.721189430790881575e-02,1.077599092432525961e-02,6.725768707707405203e-02
-1.423532519799537654e+00,-1.438188299919360702e+00,-1.422650324983895098e+00,4.616325097225401075e-01,4.752010300032872836e-01,4.548685742813141641e-01,-1.124739137669114458e-01,-1.161749474228735285e-01,-1.158993400509079619e-01,6.376734362356506480e-02,6.687230614759807901e-02,7.900795354299262885e-02,2.961803133911309824e-03,-2.243165764260254130e-03,-1.653584437511087385e-02,7.807090190865692211e-03,1.466345254188710333e-02,2.130486118082364905e-02
-1.516547223476166550e+00,-1.522187203706849568e+00,-1.500375229980527969e+00,5.040110242602521273e-01,5.035950441840543190e-01,4.730901642585796374e-01,1.077444899816093656e-02,1.699559903840157718e-02,2.027009600511193652e-02,-1.167776916918246422e-02,-1.197716840961354431e-02,-8.623701660967961896e-03,9.768768087034820913e-03,8.615095444551421414e-03,1.179300442465851251e-02,3.890553172612742396e-03,5.134717732832486115e-03,3.971788315948324329e-03
-1.252863911019306942e+00,-1.227602186028698084e+00,-1.168177101782680083e+00,1.727880162649758633e-01,1.321451831026921875e-01,7.143135730784300197e-02,1.313241738013797844e-01,1.119519688371514027e-01,7.327242796497258903e-02,-1.408531608028870674e-01,-1.037190903784273588e-01,-3.625181210422246531e-02,5.846888709944744050e-02,6.726794155554877142e-02,4.037446093737460245e-02,3.125455192314061797e-02,2.005307682379153106e-02,1.942506477738812493e-02
-1.139472741116352772e+00,-1.117155803317598117e+00,-1.085304718419186853e+00,-2.314053247946608674e-02,-4.174853180402287450e-02,-4.467959652811162585e-02,1.479302121809586146e-01,1.541472464259372732e-01,1.208548568583733551e-01,-9.440327379675779451e-02,-1.108730403629349937e-01,-1.223152399376391530e-01,-3.586750852508255316e-02,-2.754666536154104506e-02,-5.023610020418040056e-03,1.455131396943543098e-01,1.436747433033684074e-01,1.368176045277035013e-01
-1.362512989862869173e+00,-1.342412291742701047e+00,-1.289845437821503626e+00,2.892691573555907780e-01,2.716073565596395234e-01,2.127868986540158991e-01,6.749433945414416713e-02,3.557427650401034230e-02,1.698704132975739634e-02,-1.094216852313080190e-01,-9.534386984016844646e-02,-6.220367904317870844e-02,7.871752945612336960e-02,1.309259470594542063e-01,1.342111943407754415e-01,3.661093861424599694e-02,-2.289833712012857598e-04,-1.184593544561894987e-02
-1.183235635060459590e+00,-1.170051351775431403e+00,-1.142168868832361683e+00,2.349217972509330676e-02,1.832008731591940401e-02,1.883690246652471381e-02,7.207933794766847868e-02,7.004516473527470921e-02,4.984715756650159868e-02,-2.529297563866037424e-03,-1.324847526198513238e-02,-1.553893366551392478e-02,9.538482986441806921e-02,6.930153384745452172e-02,3.104771266503066063e-02,-5.030737272412003080e-03,2.576698749367203889e-02,5.807004301588104128e-02
-1.193816903086816428e+00,-1.150432281431595927e+00,-1.097911400716998775e+00,1.244525691207971768e-01,7.310201799924544164e-02,2.623849656169943353e-02,5.070319471647929260e-02,5.002871565974474632e-02,4.262088137608075616e-02,5.469706201332361767e-03,-1.378054548733662760e-03,-7.068866170129466109e-03,-8.205167805540639070e-02,-6.009140755012475771e-02,-3.561557638326387498e-02,9.538625510681618402e-02,8.889079449522334364e-02,7.182683609414515502e-02
-1.151554462365293574e+00,-1.129226032497443910e+00,-1.087534167622854042e+00,2.528793462745322976e-02,-1.023638916653786882e-02,-4.594665729837477119e-02,1.099357211590414884e-01,1.464430473571735059e-01,1.637878829023386995e-01,2.051683619748961851e-02,6.892738761424973236e-04,-9.183154143035564959e-03,6.151314266181085594e-04,-2.475830409949624986e-02,-5.254019725783631856e-02,-4.676189617180709183e-03,1.719278449426869457e-02,3.149452036446602488e-02
-1.530113283964077642e+00,-1.511772019030675596e+00,-1.474014219724177899e+00,5.618139463476865547e-01,5.474774306910693555e-01,5.182314717048727148e-01,-2.875315742316162174e-02,-3.545644426348519562e-02,-5.533122489432738822e-02,-4.208020640143572688e-02,-3.280503213276843300e-02,-9.698746398215319503e-03,-6.366773871933836815e-03,-2.064181684979774639e-02,-2.863102951725082779e-02,4.583354848558774536e-02,5.349118618187519852e-02,4.966270918208056523e-02
-1.410761763487686338e+00,-1.432986924900082615e+00,-1.430977734058956008e+00,4.081434226412029020e-01,4.186048406356627227e-01,4.077732099219152917e-01,-1.175240468223739780e-02,-1.994075935034631854e-03,5.588179840207116965e-03,-1.799443350929977037e-01,-1.604781958918984064e-01,-1.331592000331934533e-01,2.806748394935505431e-01,2.671645971736469338e-01,2.306762246863321431e-01,-8.620242728828068912e-02,-9.017749742876861319e-02,-7.979689235528117375e-02
-1.491072891142427359e+00,-1.506937313771278486e+00,-1.479665947513911117e+00,4.641025244048197496e-01,4.876723439257419357e-01,4.545365396770372213e-01,9.129589236095540794e-02,8.091050401694749317e-02,7.516180002092952284e-02,-1.645600788421250071e-01,-1.731506518384839377e-01,-1.705227128272163994e-01,6.847322963066462820e-02,8.004334357130074573e-02,9.402459994550349531e-02,3.193716405261480540e-02,3.160081280170768531e-02,2.656599502898142687e-02
-1.313976119252137309e+00,-1.309544264520725587e+00,-1.293983189000282419e+00,2.580125862882474141e-01,2.328943128334393098e-01,2.114446270588806465e-01,7.761742424543283114e-02,9.098773971409258865e-02,9.055031889685417890e-02,-1.586249938573232876e-01,-1.584535869362551919e-01,-1.507309839804734097e-01,1.220358771980302320e-01,1.138336383484407771e-01,1.101229697448930789e-01,1.506382536979503084e-02,3.038738107021812795e-02,3.266986912953745437e-02
-1.298824787300215666e+00,-1.274181744002769845e+00,-1.241586803753766066e+00,2.128221008069204612e-01,1.638582462068203238e-01,1.268220361464055812e-01,1.059105231624999366e-01,1.085348924195506659e-01,8.590394337779921896e-02,-7.161326516438959455e-02,-3.704209170083641589e-02,-7.317058881779099806e-03,3.566077534015524297e-02,3.122366982705528093e-02,3.661105932135843427e-02,1.617209266861463490e-02,7.699426592104429388e-03,-3.680022157124298297e-04
-1.558915269199061759e+00,-1.546693194002389804e+00,-1.508668392414051374e+00,5.345487017970783628e-01,5.239803763938662984e-01,4.829247126437980486e-01,1.872249889140581991e-01,1.835438029789353553e-01,1.734020670825215105e-01,-2.021592728942646633e-01,-2.515940548244727237e-01,-2.907838663585159411e-01,-1.621703847480834848e-01,-1.000153137069544895e-01,-2.871718814178000900e-02,2.017235411266750100e-01,1.909838252960605609e-01,1.719985410356447419e-01
-1.192180841925910562e+00,-1.195076232098879254e+00,-1.186367030307383663e+00,1.446031580378321912e-01,1.583078217426472645e-01,1.657871074113601295e-01,2.009365878794949073e-02,-2.179299010585513362e-03,-1.715737301454946934e-02,-9.215538626025044852e-04,-1.763464512142052382e-02,-3.401175450137782635e-02,1.038746324178950464e-02,2.539970707299223085e-02,3.642444932543667524e-02,1.811131499100528119e-02,3.125700667240606523e-02,3.538188263948954110e-02
-1.319370975931883461e+00,-1.276117056142100470e+00,-1.224095383224286904e+00,2.888097945558608104e-01,1.868669618330596749e-01,1.086870420112812236e-01,-1.982531918372703802e-02,4.039983315975990974e-02,7.066895970404107885e-02,2.836602062824364681e-02,4.278483365947186728e-02,3.893436208812067062e-02,1.523032280275384183e-02,8.963813795183458305e-03,8.183278596584074235e-03,6.923507635725225685e-03,-2.801637879925507075e-03,-2.308838221806740632e-03
-1.397229370013853167e+00,-1.374461398896511533e+00,-1.311103374240914610e+00,3.268468740919503457e-01,3.004197360503482739e-01,2.289478472490280581e-01,1.295312532987587528e-01,1.114185880619655428e-01,9.204885190897846292e-02,-1.214054250309915817e-01,-1.143251274320700173e-01,-1.029253861573788675e-01,5.488597748843316443e-02,4.885786217948800969e-02,5.734982104739602682e-02,7.496716462665501020e-03,2.820286796657807751e-02,3.577344380644393446e-02
-1.290329095491507649e+00,-1.247987937830062233e+00,-1.191968473905968606e+00,3.232241117732903013e-01,2.216193686704537591e-01,1.296151993986746076e-01,-4.466856965415547109e-02,2.578536246219408426e-02,5.684208654436113256e-02,-1.514161933299131568e-01,-1.792021417842356024e-01,-1.592044523859898753e-01,1.939310414395036541e-01,1.901900940425383102e-01,1.434254717257013312e-01,-3.062157619472175712e-02,-1.030856979923937440e-02,2.136675168298953625e-02
-1.541757913635798394e+00,-1.570228216366603258e+00,-1.573916247115024092e+00,6.046692157441392323e-01,6.194421108678901389e-01,6.014541102802635208e-01,-1.194277591699244717e-01,-6.188268902835766805e-02,-9.863874030851486202e-04,6.372396503819512115e-02,-8.976267064292213493e-03,-7.666393604164131736e-02,-4.665045193630079634e-02,-1.048104580137831227e-02,2.580466022398067438e-02,3.966136379329567030e-02,3.230327267064570657e-02,2.443934118598516114e-02
-1.414611098430935687e+00,-1.393292229286476225e+00,-1.347666949011533166e+00,4.222765847786982829e-01,3.625234876494406455e-01,2.841229182919189356e-01,8.813117702378080176e-02,1.089531316640406228e-01,1.214184192713983201e-01,-1.523844002507158679e-01,-1.446059723279955744e-01,-1.276779728621055543e-01,9.424307285674600465e-02,9.977502857184816776e-02,1.074814869757501068e-01,-3.755694445852861968e-02,-3.327425762680349258e-02,-3.761689194991849061e-02
-1.265981808706330813e+00,-1.259885660447011890e+00,-1.237556897854507287e+00,1.716735304601673395e-01,1.693023824328180049e-01,1.661992942631486114e-01,7.514447604602718378e-02,8.195835569799343745e-02,7.037998440335685446e-02,-1.283939609695319561e-01,-1.477671920012759432e-01,-1.593161216281723525e-01,1.585988938949008109e-01,1.557749340702973551e-01,1.485184752012581599e-01,-1.088248877813218461e-02,7.259838645476934501e-04,1.184642105257362708e-02
