-1.634791967795420353e+00,-1.589865896461310379e+00,-1.413701219825376443e+00,7.033239805694294633e-01,6.506560894905495385e-01,4.657402760323147706e-01,-1.311439588621272356e-01,-1.643618640564392386e-01,-2.197264244728355520e-01,-2.837858853079701892e-03,4.534406364095832503e-02,1.444709142907210364e-01,7.999897149820783815e-02,7.971082496041446974e-02,1.728580552484994606e-02,1.116601209064016151e-02,2.982175469291394043e-02,1.034774765267088698e-01,7.258973125979780588e-03,-5.570044215880123883e-02,-1.859312730832882732e-01,-6.544520325093750035e-02,-2.192440706496494307e-02,6.556196536179560719e-02,1.026258681721265442e-01,1.022848303349923882e-01,8.997927452673129545e-02,-1.411471689562224519e-01,-2.060691888490525370e-01,-2.010351862764109265e-01,-2.915684838501530693e-02,9.804411518104452772e-02,2.022893335214446808e-01,2.450019099319874702e-02,-5.411892746215517941e-02,-1.758395910679321772e-01,1.910715326899906086e-01,1.891256574261672430e-01,1.515435725792791122e-01,-4.054464815085610796e-02,-5.711945688904108975e-02,-1.126756033859250966e-01,-8.881553531998370721e-02,-1.887847577081691250e-02,1.651913314937322186e-01,1.911250727344969078e-02,-4.331207740406377987e-02,-1.188790522505973057e-01,-2.219514547679129340e-02,-2.695409030448426072e-03,3.265448840715082235e-02,-1.276910476948104126e-02,1.490514766896212408e-03,-2.405138250577291796e-03,3.093233928879043568e-02,2.402874669178035189e-02,1.159297172942015328e-02,7.488613853562481326e-02,6.718614893813296129e-02,-1.108668234273219033e-02,-2.314941683671111194e-01,-2.031399399264818828e-01,-5.249774796367349255e-02,2.550976191514066072e-01,2.131910610387595384e-01,6.471495182910380617e-02,-5.609886513004488928e-02,-6.835476395782681680e-02,1.250306629009422313e-03,-6.233353733141010211e-02,-2.973783645305222781e-02,-3.949046524240465428e-02,1.647008697232109700e-02,2.451609070473276947e-02,2.478870482802400521e-02,-5.370238380499049204e-03,-2.134258595183013280e-02,-1.312750646767458715e-02,-2.126623892515180046e-03,-3.743517544557279503e-03,-2.355397673772138822e-02,1.341772735400915267e-03,2.218908356686007458e-02,3.757008289372816556e-02,-3.310154491972914365e-02,-6.010461443426211997e-02,-4.692741077401417493e-02,4.200125659469852030e-02,5.323880060716087298e-02,3.896220611536996281e-02
-1.686426242317976554e+00,-1.670621406518503216e+00,-1.440718955069521190e+00,8.021831390028991704e-01,7.489959664444182375e-01,4.168289055749427319e-01,-1.972930435936431082e-01,-1.605802297918476618e-01,-4.724033823077614797e-02,-8.964097905709361713e-02,-8.010716757785035780e-02,-6.138479061092273238e-03,3.196862318155138105e-01,2.801009937270449446e-01,5.229891262974326743e-02,-6.558089719916165850e-02,-9.819414596221121352e-04,4.526494749958449859e-02,-7.524958167622862459e-02,-1.328671231910018846e-01,-9.791201880960899093e-03,-1.866261008026477430e-01,-1.575987114357594865e-01,-8.516296382207100280e-02,1.701603594075213055e-01,1.540487638540114224e-01,4.270458871767265213e-02,4.275345755377807366e-02,7.787191216588698617e-02,1.168441095297314547e-01,1.138751455933422439e-02,-4.194622250146404913e-02,-1.281851324770394984e-01,-5.395958603069648390e-02,-8.256582143003510232e-03,4.059333818466276389e-02,8.240942636848277991e-02,8.074751570934302070e-02,2.429769249907024961e-02,-1.101791951384640672e-01,-1.306996742961656910e-01,6.850791081293147733e-02,5.576317512230961199e-02,4.696502601752082506e-02,-1.492279962139230198e-01,-6.034615329212044549e-02,-5.156957751467829837e-02,9.710743579372536904e-03,7.893478070689186055e-03,2.422522954469661510e-02,1.507391936672355590e-02,1.286538947818373357e-02,-3.679180415291050110e-02,1.190044308473783494e-02,-1.774903665809909187e-02,9.362957887783344979e-02,3.841008599967875997e-02,9.634257755834010895e-02,-3.703627437244666476e-02,-6.383404975128030567e-02,-7.915671353458718362e-02,-1.456681516498457146e-02,4.074827964097491734e-02,5.874877898954558586e-02,5.873474577598980506e-02,-1.954571189754050579e-03,-9.661139851076185059e-02,-9.742209009315432044e-02,4.958497004641276157e-02,1.088326503956336261e-01,8.610148980709936284e-02,-4.997652848746703125e-02,-1.194274479829065955e-01,-6.459456765405847956e-02,-7.297635094761605046e-03,1.736426883503352780e-01,1.269546649537927063e-01,2.286642847427958897e-02,-1.769068284210409681e-01,-1.413026607633910969e-01,5.953336057550333987e-02,1.012616185495112120e-01,8.830559378894828337e-02,-5.735701052488752227e-02,5.425328355270452041e-03,-3.221738486014467939e-02,1.604249840148922260e-02,-3.392423213834984408e-02,-7.297158885007612970e-03,-2.415847071333623863e-02
-1.501657916671516713e+00,-1.525163146116375712e+00,-1.375488730443269469e+00,5.862811524117713669e-01,5.966558761810248912e-01,3.295317227617075573e-01,-1.173725025952868234e-01,-8.566167749329320347e-02,1.110751019102670378e-01,-4.932510756967344034e-02,-6.617096669689488675e-02,-1.435999383840834698e-01,8.172835502852664191e-02,1.011116602267947417e-01,1.062607956448383129e-01,-9.463169254781068213e-03,-4.858433181539364293e-02,-4.936012509511991664e-02,1.156056893176697978e-02,5.350145270088015048e-02,5.725425399262895620e-02,-1.455292962314604921e-01,-1.548446617115380175e-01,-1.246670029905865562e-01,1.615024388844013836e-01,1.422443296021034254e-01,4.198635472378488276e-02,-7.115924038551390413e-03,8.848530626814420097e-03,7.150917507257539829e-02,2.387338684776701275e-02,-2.988323414764769426e-02,-4.673334866160020612e-02,-1.272191312018395304e-01,-7.960000938999076125e-02,-2.167709483749238192e-02,5.764486067029758048e-02,9.782461119285942863e-02,4.301289285422223857e-02,6.187223276104953512e-02,-1.174740763454483472e-02,-9.760076134055866576e-03,-4.544399804384312985e-02,1.467741203742742827e-02,2.750845722509546662e-02,-1.030472120887484383e-02,-5.035544816498372517e-02,-3.900762199161414423e-02,1.212683564254775706e-02,2.706864028548262510e-03,-5.066091318063858928e-02,9.326309327515674985e-02,7.935077343111435200e-02,4.963965770538097955e-02,-7.561165867276808950e-02,6.058426371090280468e-03,1.255213906741368957e-01,5.132262178566589228e-02,-4.585755792062612413e-02,-1.496603360445202258e-01,-1.065583827770093389e-01,-5.025060427649320066e-02,8.637233923686721271e-02,6.146252978509366555e-02,9.856436415695371545e-02,-5.609877555527206794e-03,-4.721853526688411795e-02,-9.229263004683500859e-02,-4.443165453482852273e-02,1.040682448490383022e-01,9.851991550112712548e-02,1.311019087354722314e-02,-1.404700877856716046e-01,-1.409459422702044051e-01,-5.005043523839126235e-02,1.317688865266671283e-01,1.539919826249892820e-01,1.167721861664274274e-01,-7.095774740820172399e-02,-8.718265193882737685e-02,-5.846645589122115988e-02,1.437981546488493328e-02,2.279533728831435041e-02,-1.947374300961812743e-05,-4.516028638894349634e-02,-8.996995346640029867e-02,-1.182481734318014954e-01,4.688148884282988815e-02,8.187414670816504925e-02,1.080092985949485246e-01
-1.407626262832609276e+00,-1.383279054445561096e+00,-1.263057924857890368e+00,3.755415410815307609e-01,3.321653484671317491e-01,2.309523540291596733e-01,-3.301029097108360705e-02,-2.751882414635336074e-02,9.642032319767235293e-03,7.584316849147373918e-02,7.376039673663258023e-02,-7.208090191668488356e-02,-6.091332338733141533e-02,-5.273706172976756062e-02,3.596527275130769613e-02,7.222215867498399389e-02,7.329929327987319554e-02,3.348887838877944584e-02,-1.095163675890395601e-02,-1.136145646879209133e-03,-2.896498481580454289e-03,-9.863933619772487227e-02,-1.268068019000769819e-01,-9.452455160436465387e-02,1.455970629971083674e-01,1.661942545003654848e-01,6.807871836218599981e-02,-5.984966514433372881e-02,-5.516389954043249971e-02,5.368123791494596592e-02,2.339417008713847584e-02,5.496594348631592131e-02,9.188193080531255330e-02,-9.484090857376788197e-02,-1.401813634205831549e-01,-1.336144214190563007e-01,1.922689420237040647e-02,2.765923288551128470e-02,1.343795320507908293e-02,3.693459308941030722e-02,5.998050033951179971e-02,8.836428719565202206e-02,9.588357487982911154e-02,6.845596085290886479e-02,-1.439595603320984948e-02,-1.005909233925408458e-01,-1.141949054412438741e-01,-1.666666911154572328e-01,-1.383587884715915643e-02,1.900082956664858602e-02,7.750456862830265581e-02,6.464586488837112399e-02,7.227426957059940316e-02,6.875324029316474961e-02,5.316586044181326187e-02,1.008251759551323685e-02,-1.477108842982726919e-02,-1.535569832400897061e-01,-1.228309023319996834e-01,-5.636559308186826073e-02,7.822121665888639996e-02,8.372051740957969779e-02,8.458638311647424801e-02,2.632951486073160929e-02,-1.535020414187890717e-02,-7.366231247374238622e-02,-1.992425258824078241e-02,2.178761431814124974e-02,3.256449593469052523e-02,-2.154754792202422456e-02,-5.793300564074876230e-02,-2.394054047299610036e-02,-8.226842264634939839e-02,-4.298684163726562008e-02,-2.223757321090702108e-02,1.585864241265989572e-01,1.256139323073184599e-01,7.996690051862218040e-02,-7.565164993294332119e-02,2.515891780309786538e-03,5.117634898856929238e-02,-4.860878823234882073e-03,-8.783455258652080044e-02,-1.078285491861773054e-01,1.940989079542498191e-02,4.477030416753137454e-02,5.492841121348713412e-02,-6.679014295656751296e-03,-8.118367868347544508e-03,-2.882683557978478819e-02
-1.281043969245101888e+00,-1.269128116483195123e+00,-1.197043420384543255e+00,1.793666513494832082e-01,1.625213215545076861e-01,1.561883707389025988e-01,8.594783273148273728e-02,5.491115486450743807e-03,-1.114086717360385365e-01,-8.033164463717787362e-02,4.488865206731344759e-02,8.735358262376492766e-02,4.589384161629826708e-02,1.917275859287727313e-02,3.339335822108594615e-02,2.829775492615776294e-02,2.895650925502016998e-02,4.894054416522571060e-02,4.849990956679563203e-02,3.573126832655555002e-02,-1.467627088599223785e-02,-1.095298922300886602e-01,-1.196808958198316009e-01,-8.603515412505507998e-02,5.555007619914264366e-02,6.623428907508299712e-02,5.128394701816666595e-02,4.142849274701823625e-02,1.942600851885186233e-02,-1.060727028371904329e-02,4.137575941895023368e-02,3.577361014493801727e-02,5.875796823872740660e-02,-1.239318234785574263e-01,-6.156148023859715768e-02,-2.195366844782498800e-02,4.913739685402492702e-02,1.354609169054928931e-02,7.450494829678204825e-04,2.554897982731946932e-02,5.491932824546298664e-02,6.499211697735735038e-02,1.201734510657474428e-02,-2.289697418720809327e-02,-5.083688477528452293e-02,-5.312480744565570290e-02,-6.630357131594938336e-02,-7.836872047507928429e-02,4.904514527323027701e-02,5.528280156328432837e-02,1.815604740429172317e-02,7.003902066918190825e-03,2.045508197377315235e-02,6.978200799707469371e-02,-7.762026763559797850e-03,1.933647374023877551e-03,5.323918246065116600e-02,-2.931781537962000611e-02,-6.277505934835503343e-02,-1.016790934220254683e-01,-4.298930606870038883e-03,3.677519315251616405e-02,2.448909199874917120e-02,7.111342577614511440e-02,3.302204927214969638e-02,1.524813150879153825e-02,4.548048190264927099e-02,6.430435586420302219e-02,7.344254082199908051e-02,-4.669785585594160571e-02,-7.078096954483503733e-02,-1.226561454950673286e-01,-1.850800856887329093e-01,-1.073248144215168121e-01,1.379889254259630479e-02,2.426525174106831939e-01,1.439321297135518485e-01,3.574876088172013362e-03,-1.581310325668005279e-01,-7.643821914684245655e-02,6.640944034519524752e-02,-1.348811596768008381e-03,-3.767090407727193002e-02,-1.205349916165141810e-01,4.737699884855776922e-03,8.657532115670385497e-04,2.790426577058547492e-02,4.773631852969850708e-02,5.152913480309671834e-02,4.824636862546974325e-02
-1.128298239765212152e+00,-1.093187217784846066e+00,-1.011808988970079648e+00,2.433578193074853804e-02,6.062098218229335133e-04,-4.593849366128521794e-02,9.567622943299133875e-02,7.292285455770670943e-02,4.591225155756264303e-02,-1.434835212661139947e-01,-1.149417976227534582e-01,-6.952823961232369732e-02,1.913368602275096753e-01,2.068743040480766071e-01,1.908803300321468555e-01,8.352347932927052521e-02,2.009085552851362644e-02,-5.519910957958720776e-02,-1.102176761138420613e-01,-4.570675899484384630e-02,9.993753942994270528e-03,-1.320770793066884385e-01,-1.728087739760347241e-01,-1.868512658076620647e-01,1.567708877143415558e-01,1.426537283095596909e-01,9.217518104065378082e-02,-1.369832162191957775e-02,-1.278911251342099240e-03,2.868227346715754994e-02,-1.172637955969340062e-01,-8.386548189462898761e-02,-1.443770777126701654e-02,5.038051300091055812e-02,1.000359789097869309e-02,-3.110299127848693140e-02,-9.758400752505698439e-02,-7.072900292799191857e-02,-4.278442886725284527e-02,1.614566994498375374e-01,1.571011396314515307e-01,8.801539228759347466e-02,-6.072422428160418467e-02,-1.173788127491809524e-01,-1.251894524380796903e-01,3.736759023071824226e-02,8.615046819559969704e-02,8.951652517465272241e-02,-2.118015033829214952e-02,1.170957908294324203e-02,5.865712669697652898e-02,-2.322954842863710762e-02,-8.316031027838495515e-02,-9.181386761608305302e-02,7.290337752927021631e-02,1.018311288130634290e-01,5.943529440180678886e-02,3.786003082621111626e-02,-5.545293851375600845e-03,-2.967538900127882420e-02,4.274294410151682246e-03,2.224171847632438331e-02,3.205437270799232907e-02,-5.283043268920292052e-02,-5.707344294230060067e-03,5.807077190748705792e-02,-6.220168052449731588e-02,-9.120977963975768210e-02,-1.115994463079389015e-01,-1.645392818842823703e-03,8.221590823912404422e-03,4.082412903583364228e-02,1.910029938242103001e-02,1.903595059860115242e-03,-4.391746404937572207e-02,1.022902633859912175e-01,1.013976270068234486e-01,6.855049309016247872e-02,-3.237095889641391361e-02,-1.087439948408940732e-02,4.603250845575881933e-02,1.309997891832769858e-02,2.070389834284368930e-02,9.111363392925744820e-03,-7.755747968331055953e-02,-1.122111020263397985e-01,-1.134126784771940094e-01,2.424374159642088411e-02,4.442640110830101130e-02,5.556820795234956867e-02
-1.093467175650784329e+00,-1.089811480369301977e+00,-1.023391774462948156e+00,1.008008351575327144e-01,1.010894226145348657e-01,8.611791260276939475e-02,3.474532931337682984e-02,4.634049171371706216e-02,1.194216982040662879e-02,-7.197271437765116742e-02,-9.918864053163015115e-02,-6.874893993735714526e-02,2.503099780840547378e-02,4.099255118366074840e-02,2.145859918615524234e-02,3.252819694519971244e-02,1.606961055035976624e-02,-1.074918307914765267e-02,-7.175035757836077666e-02,-5.960626625096777931e-02,-1.816900775666041579e-02,7.511452275188042205e-02,5.788104630457185928e-02,-1.965894039810012206e-02,-6.129665691732349986e-02,-6.156094132045629441e-02,-2.572498084869489707e-02,8.252894430180320040e-02,1.029983708461176123e-01,9.614340049301475788e-02,-3.068859237608573612e-02,-2.790575342422827593e-02,-7.834990713589387243e-03,-5.209881238732119724e-02,-6.582949749712835308e-02,-8.916956893750790925e-02,4.752027519505382103e-03,3.105039687889220301e-02,5.355135682620309340e-02,7.637338745005622931e-02,6.845188092409806857e-02,4.485456844312318836e-02,-8.941266779347396831e-02,-1.086000490228350435e-01,-9.585520017574596097e-02,2.431500349119807350e-02,5.151203044878101267e-02,8.979959914276454402e-02,-1.359331255403914938e-02,-4.752171728740151035e-03,-7.589728428746878724e-03,-7.870046112733144333e-03,-2.127126578173977114e-02,-3.192312972773138358e-02,1.788214594892406639e-02,9.940014154606113123e-03,6.998692703916018941e-05,-2.650039384728555131e-02,-6.193614276480863962e-02,-9.750488491495715171e-02,-4.039677932917218328e-02,-7.638553725514368384e-03,3.311271022522407209e-02,4.814147995785993811e-02,5.647204516339827257e-02,6.763324765624094403e-02,1.664551671204941852e-02,-2.025776523590243697e-02,-9.266799315250426328e-02,1.999249446834617736e-02,6.439722974317557691e-02,1.034837104719977807e-01,-8.344615403584762720e-04,-4.409418303347349688e-02,-8.636167544570183541e-02,3.220097203810363962e-02,3.153242752111809488e-02,3.385435953206065302e-02,-4.549993222438859092e-02,1.361533862163944418e-02,7.766474551247015690e-02,3.464279462517146080e-02,-6.294070102226656527e-03,-4.600075484482624155e-02,-3.789274329944017361e-02,-4.181430545353608669e-02,-4.040243529337087663e-02,1.783814073748443696e-02,2.843905044691931450e-02,4.219733830217851228e-02
-1.210017207088362579e+00,-1.239307570576705819e+00,-1.215378531976984977e+00,1.620600784387856708e-01,2.686865860403445661e-01,3.179542120726199794e-01,2.078658281827095999e-01,1.222832875412502573e-01,3.623233011068225512e-02,-3.783626191328722244e-01,-4.131065957015664925e-01,-3.229759775569391866e-01,2.774093999133086519e-01,3.571092553434357386e-01,2.251675627026631377e-01,4.665666913141239963e-02,1.046728533629362641e-02,1.309813632871828226e-01,-1.454191885841183973e-01,-1.889687982904122709e-01,-2.697518212549288585e-01,1.478060569268314917e-01,2.107415204232435391e-01,1.319790204227484220e-01,-1.757371429790046680e-01,-2.233678582592155126e-01,-8.925800762448470038e-02,-9.015684697139973725e-02,-1.108639677648167315e-01,-2.039748706872575590e-01,1.337294087241373830e-01,2.369394295247558291e-01,3.276249734924164825e-01,4.162424249871142512e-02,-5.894115585686528908e-02,-1.017001534635409710e-01,-1.195719761642151727e-04,4.731254851909584558e-02,6.109163180051994241e-02,-3.898485383158449558e-02,-3.836387157075425713e-02,-8.377469959720265646e-02,1.507552029733018051e-01,9.595208830151563673e-02,1.018610998969568526e-01,-1.847711467658863516e-01,-1.036430265969388448e-01,-4.434892661160958621e-02,3.403686250821362502e-02,3.939893451467049029e-02,6.028623124827649227e-02,3.655862799843597605e-02,-2.301147544584341079e-04,-2.411927042486185571e-02,-2.351557204809753138e-02,-8.956453175044412629e-03,-3.555301035861823528e-02,6.339466045376839637e-03,-1.217581656730169250e-02,-1.031617661210379976e-02,3.597017100098945375e-02,5.807381483394315203e-02,3.969240719392910094e-02,-7.303484986779719412e-02,-8.910731025630137803e-02,-5.226200594082765910e-02,7.879352043370022041e-02,8.729996822584730476e-02,8.637423223462362132e-02,-2.018192399009438934e-02,-5.751867328025475623e-03,-2.857423434257844175e-02,-1.265883842268099024e-01,-1.455207340661265891e-01,-1.193571034383415497e-01,1.609841568442757775e-01,1.680630077571314829e-01,1.132683048423921424e-01,-6.272778137395962350e-02,-1.021779503249619636e-01,-9.750565473024010166e-02,-5.549277295026606993e-02,-3.736079820184525641e-02,5.510232679642878975e-04,3.826977844840619147e-02,6.627081698954029321e-02,6.837966392145544692e-02,2.653043030651099435e-02,9.490451262251443226e-03,-2.471987141918739056e-03
-1.079932166548930317e+00,-1.056397799742053500e+00,-1.003087897533809336e+00,4.364240079688737339e-02,-4.365379744763217204e-03,-4.872869490446936347e-02,4.377864624390771786e-02,1.448474689449563528e-02,-1.147424207246629246e-02,-4.463733966063362923e-02,2.711235375555973853e-02,7.961439811463967564e-02,3.878056930586972449e-03,-1.326768882126610344e-02,-2.840902456665445053e-02,3.639498274804367495e-02,3.018649384845003766e-02,-1.425909572047940645e-02,9.634157504536534911e-02,9.141993259769136404e-02,6.495064538290808154e-02,-1.765511599688135702e-01,-1.463550168974205312e-01,-7.396830630067427470e-02,3.289736812619938056e-02,6.101527363108765617e-02,4.027801831891683615e-02,1.400858831930113235e-01,7.832861132323894193e-02,2.347280973694229958e-02,-7.006401816272898875e-02,-7.895837465594826576e-02,-5.165291991423674733e-02,-2.556907418320896949e-02,1.116030536149358694e-03,1.280557294653730110e-02,-2.587645167542017635e-02,-8.407274982129429169e-03,3.709447937292061764e-02,7.613876781190656584e-02,7.674597563322460569e-02,3.293887928558006384e-02,-1.384025110653210044e-02,-4.476861816419988593e-02,-2.618872574694561944e-02,-6.263691981309502110e-02,-3.498225159713613114e-02,-7.149057527394700462e-02,-1.277156072246591820e-02,-3.721114110571170641e-02,-1.081908005491937982e-02,3.441701082532421657e-02,2.738001800020477966e-02,4.460960355655516074e-02,2.298026240672886369e-02,4.895481499242034656e-02,1.674289672577193577e-02,1.283176739703082575e-02,-4.241495913569448897e-03,-3.620860377032032382e-03,-1.574516880170699282e-02,-2.216883245039580341e-02,-2.925983447008592697e-02,3.093874696778181610e-02,1.889459398510693819e-02,2.186352906848866573e-02,-3.549307018110312711e-02,-1.309444065631002081e-02,-3.906395129010497430e-02,1.140718264994838339e-03,2.581953529871290967e-02,6.672887954583812953e-02,-7.886422770691051132e-02,-1.112613021845780814e-01,-8.798599055803892066e-02,1.155416760426756922e-01,9.840604441209589714e-02,7.596549171201636384e-03,-4.749260451031506181e-02,2.662221083681343484e-02,1.362201693117414125e-01,6.522892922675019474e-03,-7.242929955736422676e-03,-2.489772685624858789e-02,-6.150476141264534652e-02,-1.044317563188975478e-01,-1.078606435057368473e-01,5.352351441590601916e-02,6.072740174927614143e-02,4.790642970500968295e-02
-1.198964479300101305e+00,-1.142277058356930608e+00,-1.007108097926619150e+00,1.562284737942455648e-01,1.019952669352721525e-01,4.252218683025754675e-02,8.776383421624830983e-02,6.091697208512414363e-02,-2.844863690002430792e-02,-6.190990937491179513e-02,-2.135691709238588670e-02,1.031014508923899960e-02,4.131465358117356740e-02,8.361451113532635329e-03,-2.595462489777392023e-03,-2.086944243724265374e-02,-1.510221600367862849e-02,-3.411221014254237766e-02,2.111683897486747296e-03,2.765120635022406612e-02,4.260298306038343835e-02,-5.656546791475954711e-02,-5.474297250500137491e-02,-4.961416990148180550e-02,2.744337917426184145e-02,8.524484204917539458e-04,7.910088918900543345e-03,8.807629889932390432e-02,7.867754813733296437e-02,3.494222584581448132e-02,-3.622997609656150586e-02,-1.374717936513738560e-02,-1.937969906873051804e-02,-3.804120838624298201e-02,-5.309199108676144335e-02,-4.028234628728564332e-02,-4.448603857639822634e-03,1.098648372718195182e-02,3.138155097544587102e-02,2.806435343179116554e-02,3.633441458073207245e-03,-1.140319317359702808e-02,4.646913199339106765e-02,5.615304143185403246e-02,2.847865759233851601e-02,-1.047162282768867997e-01,-1.012977615393185066e-01,-6.469136742039063859e-02,1.154791042938905186e-02,5.546362261173888933e-03,-2.882122331342469590e-02,1.592111333146389307e-01,1.576550726405981651e-01,1.143495582201316391e-01,-9.695120411037937147e-02,-8.273024801017453411e-02,-3.700412155646980693e-03,-7.993667610728084905e-02,-7.923171864589385882e-02,-6.916370514680390824e-02,-1.723341306214121529e-02,-1.183538737516412823e-02,-2.247961119085172682e-02,7.723539060943243606e-02,7.823998444684064635e-02,7.709094473243155443e-02,2.740918728764631454e-02,-1.647031501321809949e-02,-3.405794586751369202e-02,-3.804326539960516812e-02,-3.076795775357462487e-03,5.040210303412914414e-03,-6.926007379662664498e-02,-5.571062782160268734e-02,-6.760936661474216403e-02,1.322047634361834256e-01,7.618909382689492693e-02,2.962163977494496753e-02,-8.234858361272678895e-02,-4.510933965688826430e-02,3.873680172548239764e-02,2.863336301280127328e-03,-2.004089603255261587e-02,-5.955903881901935398e-02,2.503851542262042207e-03,4.086404327491657135e-02,6.072723923592705797e-02,1.515128407965865044e-02,8.174280422769301252e-03,1.940264203901161805e-02
-1.044294427898003752e+00,-9.524707831172076755e-01,-8.632686700218364928e-01,2.562934116404330664e-02,-5.256695044342091228e-02,-7.195793543509385048e-02,9.649544148264524446e-02,1.207748011978161257e-01,9.873869489354596130e-02,-1.391370382335986033e-01,-1.935536534304525547e-01,-1.832816465808405071e-01,1.096181756753177583e-01,7.470463417758736735e-02,-9.859604724816926208e-03,-5.155340761503405395e-02,-5.087780049828697498e-02,-7.490405998616829486e-02,-3.742503494679082221e-02,3.770415577275031821e-02,9.258387341364071599e-02,-2.028478209518685960e-02,-2.717336378445297379e-02,-2.980810431553483283e-02,1.889769211274973035e-02,-1.670534478285784497e-02,-4.021049112833496864e-02,1.962688708313861316e-02,5.340713866867115300e-02,6.774592228857508058e-02,1.977344023053072969e-02,7.562064000479772757e-03,2.067254166048259137e-02,-3.704528024427829885e-02,-1.087776427096947586e-03,1.979621379534964726e-02,-6.070566769760410257e-03,-3.792423577455330402e-02,-8.070699063867228795e-02,3.569074631946731607e-02,3.129286985681199208e-03,1.168398051079372855e-02,-5.281404851062701175e-03,2.071113784217793602e-02,5.393713640326525116e-02,4.377678687792442569e-02,1.107315398399901299e-02,-8.563820098972764472e-02,-7.854368118129953502e-02,-2.868196746512606879e-02,3.541008631001463930e-02,4.098928860869362895e-02,-3.246781948205834396e-03,1.804068139477235655e-02,8.654769298460701990e-03,2.350856001433963144e-02,1.740337174597198638e-02,-3.754526486587045353e-02,-3.262817006782042090e-02,-4.066780107873851913e-02,-2.327484689772627360e-02,-3.186084036961868426e-02,-2.016421508693664807e-02,1.061898876766710909e-01,1.185229932012809989e-01,1.026604510350396515e-01,-5.328444841870413201e-02,-3.955357217517726370e-02,-7.502876497660729282e-02,-1.609775676376816456e-02,-1.798794339727320755e-03,5.612047341253195709e-02,-6.764480142903191683e-03,-2.041686276288166499e-02,-5.842012651690486891e-02,2.603342021765941636e-02,2.916153514933970264e-02,4.603703001204842438e-02,6.774424630892486587e-02,5.688553202190518854e-02,2.396855508631583892e-02,-1.182068590249459455e-01,-1.192284683685923413e-01,-7.505028683454556537e-02,4.813896588781861607e-03,2.238920593756618671e-03,3.764148564621683235e-02,5.103880092735862267e-02,5.051332627400952763e-02,6.611789822754452102e-03
-1.275763583175866245e+00,-1.229768854244734921e+00,-1.103284018343156703e+00,3.287177532848304939e-01,2.331392246467854368e-01,4.628663335451146249e-02,-5.009032829590311792e-02,-1.239997257546099092e-03,5.660838759706467854e-02,-9.042815862579241595e-03,-1.307567938762160820e-02,-6.601481460335043711e-03,4.544121793301995199e-02,3.006132333693232669e-02,-4.707618094406608618e-03,-1.344972253852053656e-01,-1.223312824773785112e-01,-6.907316485580190790e-02,1.022252557150982871e-01,8.058213612877079823e-02,3.762990454677367369e-02,-1.010856602770559692e-01,-5.904680535429328997e-02,-3.065690182461662527e-02,1.286238995797757412e-01,1.056824742358905278e-01,8.769640663562426608e-02,-1.724720700805119217e-02,-2.716566642377555088e-02,-3.823943007834169211e-02,-2.703600359677590242e-04,3.454971731029870402e-02,3.985428252823658424e-02,-2.799691553074074718e-02,-2.934139399693194011e-02,-2.044906509593424904e-02,-4.158306005297848600e-03,4.170079269387200194e-03,3.831460853972636083e-02,-2.576816129370339617e-02,-4.702854857685532380e-02,-5.120141163486782721e-02,9.827331958000607576e-03,9.131281281927821139e-03,-1.037491231773685248e-02,-3.848307449937778818e-02,-1.115235735102709964e-02,2.757729339492043415e-03,7.072280823662628613e-02,4.229490938540591410e-02,3.429176932049478321e-02,-8.383331794879003707e-02,-9.776951459808486122e-02,-6.224569331476977746e-02,1.357072107197474509e-01,1.542826116392994329e-01,1.020984153325139726e-01,-6.225720551277465903e-02,-6.021870101282294357e-02,-2.763042454791670224e-02,-4.607881103609800383e-02,-3.101703905531448535e-02,-2.894411443442393428e-02,5.301521050255632306e-02,2.873442450611872825e-02,-1.761746470465599609e-02,1.545278106758298658e-02,1.253668611233818217e-02,6.939691663658441138e-03,1.733587536107121345e-03,1.348606399924152238e-02,1.883281655409769963e-03,-7.668174136626983162e-02,-7.702213389696745127e-02,-5.996391147214678863e-02,1.392915314925900205e-01,1.294195313661895830e-01,9.764360105624482478e-02,-1.088446422095639965e-01,-1.164994113192517333e-01,-2.810735693371427951e-02,6.173534692711321603e-02,7.345908021705788160e-02,2.361894304383108795e-02,-6.829605433771114564e-02,-6.648931987885972617e-02,-4.545258969141269950e-02,3.807032027064015389e-02,3.777086186638813070e-02,2.900348257066629951e-02
-1.171779709184711749e+00,-1.094687402928982589e+00,-9.408950350802161022e-01,1.226244041348750619e-01,3.980975732313492277e-02,-3.602771534643561119e-02,8.259860329288534753e-02,7.810366334864762838e-02,1.287818403417413313e-02,-7.059295743481465435e-02,-7.428143480044856195e-02,-8.649276263483096638e-02,7.205729771838095821e-02,9.308840156825121115e-02,8.141702453885156510e-02,-3.488112337757331288e-02,-6.243768993060226646e-02,-9.200792638098873044e-02,4.213860531060441977e-02,5.479451489885618642e-02,1.338575022340717825e-02,-1.083469871927363326e-01,-1.344645286404896056e-01,-5.479800043053754260e-02,1.051879274701383593e-01,1.166097036254422764e-01,1.020691905315014580e-01,-1.564797541794623117e-02,4.128495866743330141e-03,-1.266127698937163579e-02,-3.588759290567836158e-02,-4.831824554722745357e-02,-1.541358572013571369e-02,-1.604974928565431475e-02,2.077802553726858931e-02,3.486018314100713250e-02,-1.866123711934150955e-02,-4.089507047474892631e-02,-3.118893520283420873e-02,1.045017070515369961e-01,1.012022833130002547e-01,6.105404828187473154e-02,-1.145158154776472655e-02,-1.007039871950975163e-02,-1.021490015786234197e-02,-1.593625649964585667e-01,-1.294593274807409045e-01,-6.712496586157641609e-02,2.847946973158825903e-02,1.643695972934044666e-02,3.625410418095288689e-02,1.994164394169429810e-01,1.285447513130075492e-01,-5.424545729628631185e-03,-1.161523869246756380e-01,-4.991079295034515223e-02,-5.142912572234855338e-03,-5.333816035976060577e-03,-1.229421089846839850e-02,1.099090841989907967e-02,-8.261700581247441444e-02,-6.291648824454174060e-02,-1.121789735804810256e-02,7.731578800277584540e-02,3.763222648076620241e-02,-1.973034456270659001e-02,3.848389242054189863e-02,4.940921311750831602e-02,1.499355750305025360e-02,-1.106285164357984074e-02,-3.862370212061167624e-02,-7.505389592323442882e-02,-1.630613521603455351e-01,-1.048886155098273931e-01,-1.934009830208443387e-02,1.703503624561221730e-01,1.375202541235524267e-01,1.389227785418543915e-01,-6.312811852441271854e-02,-3.801664216197876700e-02,-1.510127039311170809e-02,1.963028013283810158e-02,-3.587002047381237114e-03,2.255575184352745857e-03,-1.016564425010661743e-02,3.878071421139019787e-03,-3.623053849358730261e-02,3.151659640195478979e-02,2.301960838378380031e-02,2.507470423065851287e-02
-1.153052754050554185e+00,-1.070744912941173022e+00,-9.130925481296553459e-01,9.337372313146703739e-02,5.634821239391448605e-02,7.397900977805181230e-03,1.166685765746943576e-01,4.179854047364699177e-02,-5.826147708876582704e-02,-3.696939351404068819e-02,-2.397767486384210986e-02,-3.121012957036304464e-02,-4.688688968715400834e-02,-1.534661452958644388e-02,7.147592930996337669e-03,9.002458178505236275e-03,7.273094468930089984e-03,-1.629489400905469870e-02,-3.395760642355549058e-02,-6.501707637218538671e-02,-3.929800448724827394e-02,-3.390871530101283865e-02,-3.998665017378924547e-02,-6.544979223019176118e-02,2.836168025396667083e-02,1.981213795335300121e-02,1.283301424972449305e-02,4.623536870937964421e-02,4.955237584782810206e-02,1.231226749675013755e-02,-2.435090031707528788e-02,-2.281873468806193406e-02,2.365491284637897054e-02,5.115880123529337534e-03,5.844928418607586718e-02,7.831049502828368869e-02,-1.350680562398593951e-02,-2.452950617149378398e-02,5.500559453585454270e-03,9.275801214193650501e-02,4.091715795940736172e-02,-3.891120988477685810e-02,-2.481179578720641571e-02,2.728421591320291315e-02,6.220258858562006943e-02,-7.249052069791300790e-02,-4.941166155933853638e-02,-3.887370323313766446e-02,-1.948927628290045896e-03,-3.629801032925918797e-02,-2.546299646972736280e-02,7.803384511839349391e-02,8.115768394047510881e-02,4.423512037090135407e-02,2.791931572361821753e-02,1.894103510774337515e-02,1.681783587268048663e-02,-5.228370908638861614e-02,-4.113337919913440804e-02,-3.716107518002254723e-02,-8.042827148179067243e-02,-7.658389512883793937e-02,-6.205345234231390145e-02,1.074571628552273700e-01,5.204609706928396001e-02,-5.558793634948063118e-03,2.229049949462513780e-02,4.099949591549632150e-02,2.725327243523710877e-02,-1.366992280980884426e-03,3.821325943733216990e-02,4.182975867566255529e-02,-1.441285557129875494e-01,-1.671916414357798863e-01,-1.292104707315096801e-01,1.317637914137727573e-01,1.240656284221658689e-01,1.154425721567825108e-01,-2.995220962697725878e-02,-4.792889288449535962e-02,-1.819294269580363360e-02,-5.544875019736961869e-02,-3.703583511006442591e-02,-2.796571990024092694e-02,3.694295986887197181e-03,5.504708247172333119e-02,6.476851226620200519e-02,4.296468389452395842e-02,6.227033577623777676e-03,-1.261535286282947955e-02
-1.211377004065853358e+00,-1.151186581902260198e+00,-1.054820413849748340e+00,1.974488216033077337e-01,1.202489732217989216e-01,5.418880384123374999e-02,3.498886958645908846e-02,3.148640433760199059e-02,-1.474231471393179158e-04,-1.278968680545664593e-01,-6.963637683047770033e-02,-3.025472760749055995e-02,1.493993637650263828e-01,6.652700645853117101e-02,-5.294352754947469555e-03,-1.364582546100958915e-01,-8.810100189535027826e-02,-2.257032224441510651e-02,1.084110454800399220e-01,1.547025518744076997e-02,-5.978447125436627679e-02,-8.947381637263744636e-02,1.576090950760813611e-02,4.582982940041923497e-02,-2.350790442054055684e-02,-1.198923255007367395e-03,2.008474641236872651e-02,3.173932504841461832e-02,-2.139980839186444647e-02,-2.450426301575553065e-03,7.887726651057150318e-02,5.793726624771514816e-02,9.622274485260947849e-03,-9.886181432416592252e-02,-4.348477518529311747e-02,-2.169773431411232273e-02,2.129634582586683103e-02,7.162240152619381295e-02,1.384381754475549342e-01,9.533799586306862528e-02,-1.571189052274115858e-02,-8.109106468252047506e-02,1.512281031143965053e-02,6.586404163534334555e-02,4.901106840798197251e-02,-4.987978769468410373e-02,-4.223810192325112844e-02,-4.924311696607215627e-02,-1.830432824424663846e-02,-7.654418283158348491e-02,-7.588658643929178937e-02,5.875686652892436745e-02,1.232322669345417426e-01,1.369667553809768290e-01,-2.086604131631706813e-02,-1.396743088283864190e-02,1.218711213159562410e-03,-3.232144885525779776e-02,-5.326751125736757519e-02,-8.783064119966846328e-02,4.058733322638387320e-02,2.573279456183045696e-02,1.360162595891173387e-02,5.185040886235416785e-02,1.765675792491264509e-02,4.402514498979109847e-02,-9.103704560408605595e-03,-2.315073269966834869e-03,-1.005908953354512844e-02,-6.341876134321511316e-02,-2.302796598580995543e-02,3.761970733476682066e-03,-7.049026470197577998e-02,-6.160616920250263501e-02,-3.645045375453345726e-02,1.154931421550010467e-01,7.081449120434761546e-02,1.938574394506787854e-02,-7.525789453150447117e-02,-4.903546808069918217e-02,-1.605456020802066563e-03,8.745530580065821735e-02,9.815431145947794978e-02,6.220272305638685495e-02,-9.173555698243857082e-02,-5.414205474430065779e-02,1.019030204569411346e-02,3.230865390491715478e-02,-1.354167998416539419e-02,-6.925825426423215525e-02
-1.232080560866172902e+00,-1.124053424434730886e+00,-9.559604186892953770e-01,2.075833419953451442e-01,9.962812265670319134e-02,-5.374083095159425463e-03,6.639366406686129929e-02,2.869654557750556459e-02,-4.160297879473930788e-02,-5.633532634524281157e-02,-1.262700890112463878e-02,-4.642195765881215221e-04,7.832832787832459676e-02,7.266752561881588413e-02,3.115802265693511444e-02,-1.315622178894006733e-01,-1.194860755277655784e-01,-5.752603850482695957e-02,3.524755609425095360e-02,1.103380111348914623e-03,-6.236123264018946129e-03,-4.511322328229029621e-02,-1.949424398514124860e-03,9.453296371975464241e-04,5.528547398910339111e-02,1.847973506287926143e-02,1.814536286507276944e-03,2.733731919949035361e-02,1.674500685283042758e-02,-8.283996849433171439e-03,8.866486360205221018e-02,6.774063990181086736e-02,3.298393305653308377e-03,-1.708652548387621650e-01,-7.816586746668727215e-02,3.701317355940611509e-02,1.333618889512928340e-01,7.986087641238535928e-02,1.036450797689047673e-02,-1.306532813781086447e-02,-2.132075768852579115e-02,-8.955563956474151335e-03,-3.391009145642942535e-02,-4.665107398774574060e-02,-5.370284378350749510e-02,1.524135244737058990e-02,4.822177166441023871e-02,3.717917894885677810e-02,-8.142679530341380423e-02,-7.343190513324321378e-02,-2.238180418717388223e-02,5.087369284375352352e-02,5.644876480301798394e-02,7.971702560153064165e-02,-1.083420608043113159e-01,-6.795752912064868811e-02,-3.798227608746942291e-02,1.374326774099897674e-01,7.669571475540756800e-02,3.313136212655665158e-02,-5.073903755307231783e-02,-6.551031510985130812e-02,-1.034765525816664505e-01,1.087641141354238859e-02,5.251074342255372673e-02,8.659400941237764548e-02,-4.827875179510555254e-02,-6.933637049214601278e-02,-4.003172913679813039e-02,3.453274466344245786e-02,3.217632182584376915e-02,1.830724729151153238e-02,-5.532487830207679508e-02,-4.226354708567080232e-02,-3.253898669963886658e-02,1.054214595716329722e-01,8.699801961443531795e-02,5.890310971489571418e-02,-1.390999786342574270e-02,-2.515949041375637601e-02,-3.842103660455473829e-02,4.655577744311911736e-02,6.188491151290573949e-02,5.821031909976416563e-02,-1.052578218537133237e-01,-5.655449620987239301e-02,1.452381531242136203e-03,5.322053840831616339e-02,4.704374633492804970e-03,-4.508928170174261035e-02
-1.313849327601022576e+00,-1.281821414698324890e+00,-1.132288991615284290e+00,3.507539449911397655e-01,3.087222052849945553e-01,1.724057963474726618e-01,-1.073796063742815943e-01,-1.022974841282102143e-01,-1.037078455921926351e-01,-6.217046569195629896e-02,-4.727512548169796047e-02,3.985304893850423469e-02,1.339690692116176918e-01,1.135421158622985233e-01,3.216146502364605059e-02,-2.320215434187689399e-02,4.467529500800973552e-02,4.379681099117662540e-02,1.005587287486056636e-01,3.627748451306245930e-02,2.191435711185834440e-02,-1.667777979690122092e-01,-1.506391354655104153e-01,-1.513754711105586848e-01,1.113837743732521562e-01,1.077230476594873976e-01,1.400362806953123485e-01,4.219067627223384298e-02,-7.533838939683243710e-03,-9.008834872686967421e-02,-2.673312099958613866e-02,1.917493309973508989e-02,6.679925173992468102e-02,-4.471361897131682223e-02,-4.690264114857631977e-02,-5.859122200814070175e-02,-8.356900672720010345e-03,-2.200710533400655061e-03,-2.298557194721299532e-03,-3.642108574332170168e-02,-7.796932680310814101e-02,-6.195295879409213474e-02,6.857066446393712822e-02,1.155501846176404251e-01,7.335866777443154907e-02,-8.462932177780028986e-02,-7.430399822865219051e-02,-4.889919034796179342e-03,6.197753717902892978e-02,-9.952823378599420442e-03,-6.971586733677521963e-02,6.320026613726349544e-03,8.884657223568338813e-02,9.401799814415973122e-02,1.412636053145450120e-02,-4.366016914836126639e-02,-3.313406234619083179e-02,-4.680046625557953560e-02,-2.736586272860415045e-02,9.012655632648138362e-03,-1.622181877208530090e-02,2.890101430992212533e-02,-4.875308076540004441e-03,1.335229202716106157e-02,-7.029509150566774778e-02,-5.864358350818257154e-02,-7.115792594985968778e-02,-2.384671512987006012e-02,2.527665598645397263e-02,1.116972510832635462e-01,6.754392074880215258e-02,-2.711883543023721130e-02,-3.545269242370815976e-02,6.362023674456296005e-03,5.235369635874678740e-02,1.455446327969835696e-01,1.016781072105900213e-01,9.446368823823856481e-03,-1.710594687795383706e-01,-5.176323038410926558e-02,7.312038306731699633e-02,7.688135065952587943e-02,2.391497187824360299e-02,-4.012110405533735741e-02,-3.977297011729447052e-02,-7.797675135301625204e-02,-1.757563475508089681e-02,1.757039934272580997e-02,3.305919547618611093e-02,2.955153889352956156e-03
-1.054258739938766176e+00,-1.054279857517256502e+00,-1.046685043348967392e+00,2.317249157750007893e-02,8.992374658888581396e-02,1.594549628657836726e-01,2.472742158695357545e-02,-2.700399847909819989e-02,-1.117313388696209442e-01,-5.039739453850240747e-02,-7.332892978099679604e-02,-3.881466338093494256e-02,7.678118086672591769e-02,7.775546629055936354e-02,2.862782799527618938e-02,-7.318315507372394335e-02,-6.787194098505602846e-02,-2.966587925625418717e-02,3.380067185426716136e-02,4.100691389333960962e-02,5.938169693211941408e-02,-1.518647472336385196e-01,-5.715891908615521738e-02,-2.998849995370984553e-02,1.763266412842266484e-01,1.067655273878012345e-01,2.149074506163081016e-02,1.112145048418610935e-02,-8.566091821629916170e-02,-9.578506872670308758e-02,4.306692442506966645e-02,3.615105291385211500e-02,4.112519494942482728e-02,-7.857490476935070911e-02,-3.119403152653511119e-02,-2.298216428534206879e-02,-4.171571131027004137e-02,-5.735769597563057653e-02,3.099343489029423356e-03,1.222896577306677723e-01,1.395370585993069568e-01,4.334325584349822680e-02,-8.768647758768816081e-04,5.561617494417626234e-03,9.974844009345125440e-03,-4.959838032615064563e-02,-5.651387799233243553e-02,-4.256012431776910743e-02,-9.503668011802096638e-02,-6.207952338367830197e-02,-2.487503598964876592e-02,9.955030855686627933e-02,6.565092271935844825e-02,5.711682480972252868e-02,-6.386750838570134925e-02,-2.503888164824227824e-02,-1.483603665198158540e-02,1.979431523557489275e-02,-4.795140333686960694e-03,2.473315848330820063e-02,1.972976261117684663e-02,-1.234927816823990637e-02,-5.534774411174415987e-02,3.643997036255089417e-02,3.920586172487387083e-02,5.914238974359331547e-02,-1.727231469725503885e-02,3.230666911371993938e-02,3.136557799641808558e-02,-4.502890455269615427e-02,-4.366723043681380867e-02,-7.210435646639125340e-02,-1.316760593789794986e-01,-9.919613367597467091e-02,-1.141453194477839647e-02,1.814515546261087076e-01,1.423575790181958456e-01,6.566617732676786889e-02,-2.621301387519712426e-03,4.235425315285550399e-03,3.499927438252074113e-02,5.860362302052867997e-03,-1.808033819082661281e-02,-3.517229897060759197e-02,-8.716348849493341100e-02,-2.812995418700424063e-02,4.731471691920373368e-02,6.913331897000131454e-02,2.336497925900257386e-02,-5.476586763143436593e-02
-1.634791967795420353e+00,-1.589865896461310379e+00,-1.413701219825376443e+00,7.033239805694294633e-01,6.506560894905495385e-01,4.657402760323147706e-01,-1.311439588621272356e-01,-1.643618640564392386e-01,-2.197264244728355520e-01,-2.837858853079701892e-03,4.534406364095832503e-02,1.444709142907210364e-01,7.999897149820783815e-02,7.971082496041446974e-02,1.728580552484994606e-02,1.116601209064016151e-02,2.982175469291394043e-02,1.034774765267088698e-01,7.258973125979780588e-03,-5.570044215880123883e-02,-1.859312730832882732e-01,-6.544520325093750035e-02,-2.192440706496494307e-02,6.556196536179560719e-02,1.026258681721265442e-01,1.022848303349923882e-01,8.997927452673129545e-02,-1.411471689562224519e-01,-2.060691888490525370e-01,-2.010351862764109265e-01,-2.915684838501530693e-02,9.804411518104452772e-02,2.022893335214446808e-01,2.450019099319874702e-02,-5.411892746215517941e-02,-1.758395910679321772e-01,1.910715326899906086e-01,1.891256574261672430e-01,1.515435725792791122e-01,-4.054464815085610796e-02,-5.711945688904108975e-02,-1.126756033859250966e-01,-8.881553531998370721e-02,-1.887847577081691250e-02,1.651913314937322186e-01,1.911250727344969078e-02,-4.331207740406377987e-02,-1.188790522505973057e-01,-2.219514547679129340e-02,-2.695409030448426072e-03,3.265448840715082235e-02,-1.276910476948104126e-02,1.490514766896212408e-03,-2.405138250577291796e-03,3.093233928879043568e-02,2.402874669178035189e-02,1.159297172942015328e-02,7.488613853562481326e-02,6.718614893813296129e-02,-1.108668234273219033e-02,-2.314941683671111194e-01,-2.031399399264818828e-01,-5.249774796367349255e-02,2.550976191514066072e-01,2.131910610387595384e-01,6.471495182910380617e-02,-5.609886513004488928e-02,-6.835476395782681680e-02,1.250306629009422313e-03,-6.233353733141010211e-02,-2.973783645305222781e-02,-3.949046524240465428e-02,1.647008697232109700e-02,2.451609070473276947e-02,2.478870482802400521e-02,-5.370238380499049204e-03,-2.134258595183013280e-02,-1.312750646767458715e-02,-2.126623892515180046e-03,-3.743517544557279503e-03,-2.355397673772138822e-02,1.341772735400915267e-03,2.218908356686007458e-02,3.757008289372816556e-02,-3.310154491972914365e-02,-6.010461443426211997e-02,-4.692741077401417493e-02,4.200125659469852030e-02,5.323880060716087298e-02,3.896220611536996281e-02
-1.686426242317976554e+00,-1.670621406518503216e+00,-1.440718955069521190e+00,8.021831390028991704e-01,7.489959664444182375e-01,4.168289055749427319e-01,-1.972930435936431082e-01,-1.605802297918476618e-01,-4.724033823077614797e-02,-8.964097905709361713e-02,-8.010716757785035780e-02,-6.138479061092273238e-03,3.196862318155138105e-01,2.801009937270449446e-01,5.229891262974326743e-02,-6.558089719916165850e-02,-9.819414596221121352e-04,4.526494749958449859e-02,-7.524958167622862459e-02,-1.328671231910018846e-01,-9.791201880960899093e-03,-1.866261008026477430e-01,-1.575987114357594865e-01,-8.516296382207100280e-02,1.701603594075213055e-01,1.540487638540114224e-01,4.270458871767265213e-02,4.275345755377807366e-02,7.787191216588698617e-02,1.168441095297314547e-01,1.138751455933422439e-02,-4.194622250146404913e-02,-1.281851324770394984e-01,-5.395958603069648390e-02,-8.256582143003510232e-03,4.059333818466276389e-02,8.240942636848277991e-02,8.074751570934302070e-02,2.429769249907024961e-02,-1.101791951384640672e-01,-1.306996742961656910e-01,6.850791081293147733e-02,5.576317512230961199e-02,4.696502601752082506e-02,-1.492279962139230198e-01,-6.034615329212044549e-02,-5.156957751467829837e-02,9.710743579372536904e-03,7.893478070689186055e-03,2.422522954469661510e-02,1.507391936672355590e-02,1.286538947818373357e-02,-3.679180415291050110e-02,1.190044308473783494e-02,-1.774903665809909187e-02,9.362957887783344979e-02,3.841008599967875997e-02,9.634257755834010895e-02,-3.703627437244666476e-02,-6.383404975128030567e-02,-7.915671353458718362e-02,-1.456681516498457146e-02,4.074827964097491734e-02,5.874877898954558586e-02,5.873474577598980506e-02,-1.954571189754050579e-03,-9.661139851076185059e-02,-9.742209009315432044e-02,4.958497004641276157e-02,1.088326503956336261e-01,8.610148980709936284e-02,-4.997652848746703125e-02,-1.194274479829065955e-01,-6.459456765405847956e-02,-7.297635094761605046e-03,1.736426883503352780e-01,1.269546649537927063e-01,2.286642847427958897e-02,-1.769068284210409681e-01,-1.413026607633910969e-01,5.953336057550333987e-02,1.012616185495112120e-01,8.830559378894828337e-02,-5.735701052488752227e-02,5.425328355270452041e-03,-3.221738486014467939e-02,1.604249840148922260e-02,-3.392423213834984408e-02,-7.297158885007612970e-03,-2.415847071333623863e-02
-1.501657916671516713e+00,-1.525163146116375712e+00,-1.375488730443269469e+00,5.862811524117713669e-01,5.966558761810248912e-01,3.295317227617075573e-01,-1.173725025952868234e-01,-8.566167749329320347e-02,1.110751019102670378e-01,-4.932510756967344034e-02,-6.617096669689488675e-02,-1.435999383840834698e-01,8.172835502852664191e-02,1.011116602267947417e-01,1.062607956448383129e-01,-9.463169254781068213e-03,-4.858433181539364293e-02,-4.936012509511991664e-02,1.156056893176697978e-02,5.350145270088015048e-02,5.725425399262895620e-02,-1.455292962314604921e-01,-1.548446617115380175e-01,-1.246670029905865562e-01,1.615024388844013836e-01,1.422443296021034254e-01,4.198635472378488276e-02,-7.115924038551390413e-03,8.848530626814420097e-03,7.150917507257539829e-02,2.387338684776701275e-02,-2.988323414764769426e-02,-4.673334866160020612e-02,-1.272191312018395304e-01,-7.960000938999076125e-02,-2.167709483749238192e-02,5.764486067029758048e-02,9.782461119285942863e-02,4.301289285422223857e-02,6.187223276104953512e-02,-1.174740763454483472e-02,-9.760076134055866576e-03,-4.544399804384312985e-02,1.467741203742742827e-02,2.750845722509546662e-02,-1.030472120887484383e-02,-5.035544816498372517e-02,-3.900762199161414423e-02,1.212683564254775706e-02,2.706864028548262510e-03,-5.066091318063858928e-02,9.326309327515674985e-02,7.935077343111435200e-02,4.963965770538097955e-02,-7.561165867276808950e-02,6.058426371090280468e-03,1.255213906741368957e-01,5.132262178566589228e-02,-4.585755792062612413e-02,-1.496603360445202258e-01,-1.065583827770093389e-01,-5.025060427649320066e-02,8.637233923686721271e-02,6.146252978509366555e-02,9.856436415695371545e-02,-5.609877555527206794e-03,-4.721853526688411795e-02,-9.229263004683500859e-02,-4.443165453482852273e-02,1.040682448490383022e-01,9.851991550112712548e-02,1.311019087354722314e-02,-1.404700877856716046e-01,-1.409459422702044051e-01,-5.005043523839126235e-02,1.317688865266671283e-01,1.539919826249892820e-01,1.167721861664274274e-01,-7.095774740820172399e-02,-8.718265193882737685e-02,-5.846645589122115988e-02,1.437981546488493328e-02,2.279533728831435041e-02,-1.947374300961812743e-05,-4.516028638894349634e-02,-8.996995346640029867e-02,-1.182481734318014954e-01,4.688148884282988815e-02,8.187414670816504925e-02,1.080092985949485246e-01
-1.407626262832609276e+00,-1.383279054445561096e+00,-1.263057924857890368e+00,3.755415410815307609e-01,3.321653484671317491e-01,2.309523540291596733e-01,-3.301029097108360705e-02,-2.751882414635336074e-02,9.642032319767235293e-03,7.584316849147373918e-02,7.376039673663258023e-02,-7.208090191668488356e-02,-6.091332338733141533e-02,-5.273706172976756062e-02,3.596527275130769613e-02,7.222215867498399389e-02,7.329929327987319554e-02,3.348887838877944584e-02,-1.095163675890395601e-02,-1.136145646879209133e-03,-2.896498481580454289e-03,-9.863933619772487227e-02,-1.268068019000769819e-01,-9.452455160436465387e-02,1.455970629971083674e-01,1.661942545003654848e-01,6.807871836218599981e-02,-5.984966514433372881e-02,-5.516389954043249971e-02,5.368123791494596592e-02,2.339417008713847584e-02,5.496594348631592131e-02,9.188193080531255330e-02,-9.484090857376788197e-02,-1.401813634205831549e-01,-1.336144214190563007e-01,1.922689420237040647e-02,2.765923288551128470e-02,1.343795320507908293e-02,3.693459308941030722e-02,5.998050033951179971e-02,8.836428719565202206e-02,9.588357487982911154e-02,6.845596085290886479e-02,-1.439595603320984948e-02,-1.005909233925408458e-01,-1.141949054412438741e-01,-1.666666911154572328e-01,-1.383587884715915643e-02,1.900082956664858602e-02,7.750456862830265581e-02,6.464586488837112399e-02,7.227426957059940316e-02,6.875324029316474961e-02,5.316586044181326187e-02,1.008251759551323685e-02,-1.477108842982726919e-02,-1.535569832400897061e-01,-1.228309023319996834e-01,-5.636559308186826073e-02,7.822121665888639996e-02,8.372051740957969779e-02,8.458638311647424801e-02,2.632951486073160929e-02,-1.535020414187890717e-02,-7.366231247374238622e-02,-1.992425258824078241e-02,2.178761431814124974e-02,3.256449593469052523e-02,-2.154754792202422456e-02,-5.793300564074876230e-02,-2.394054047299610036e-02,-8.226842264634939839e-02,-4.298684163726562008e-02,-2.223757321090702108e-02,1.585864241265989572e-01,1.256139323073184599e-01,7.996690051862218040e-02,-7.565164993294332119e-02,2.515891780309786538e-03,5.117634898856929238e-02,-4.860878823234882073e-03,-8.783455258652080044e-02,-1.078285491861773054e-01,1.940989079542498191e-02,4.477030416753137454e-02,5.492841121348713412e-02,-6.679014295656751296e-03,-8.118367868347544508e-03,-2.882683557978478819e-02
-1.281043969245101888e+00,-1.269128116483195123e+00,-1.197043420384543255e+00,1.793666513494832082e-01,1.625213215545076861e-01,1.561883707389025988e-01,8.594783273148273728e-02,5.491115486450743807e-03,-1.114086717360385365e-01,-8.033164463717787362e-02,4.488865206731344759e-02,8.735358262376492766e-02,4.589384161629826708e-02,1.917275859287727313e-02,3.339335822108594615e-02,2.829775492615776294e-02,2.895650925502016998e-02,4.894054416522571060e-02,4.849990956679563203e-02,3.573126832655555002e-02,-1.467627088599223785e-02,-1.095298922300886602e-01,-1.196808958198316009e-01,-8.603515412505507998e-02,5.555007619914264366e-02,6.623428907508299712e-02,5.128394701816666595e-02,4.142849274701823625e-02,1.942600851885186233e-02,-1.060727028371904329e-02,4.137575941895023368e-02,3.577361014493801727e-02,5.875796823872740660e-02,-1.239318234785574263e-01,-6.156148023859715768e-02,-2.195366844782498800e-02,4.913739685402492702e-02,1.354609169054928931e-02,7.450494829678204825e-04,2.554897982731946932e-02,5.491932824546298664e-02,6.499211697735735038e-02,1.201734510657474428e-02,-2.289697418720809327e-02,-5.083688477528452293e-02,-5.312480744565570290e-02,-6.630357131594938336e-02,-7.836872047507928429e-02,4.904514527323027701e-02,5.528280156328432837e-02,1.815604740429172317e-02,7.003902066918190825e-03,2.045508197377315235e-02,6.978200799707469371e-02,-7.762026763559797850e-03,1.933647374023877551e-03,5.323918246065116600e-02,-2.931781537962000611e-02,-6.277505934835503343e-02,-1.016790934220254683e-01,-4.298930606870038883e-03,3.677519315251616405e-02,2.448909199874917120e-02,7.111342577614511440e-02,3.302204927214969638e-02,1.524813150879153825e-02,4.548048190264927099e-02,6.430435586420302219e-02,7.344254082199908051e-02,-4.669785585594160571e-02,-7.078096954483503733e-02,-1.226561454950673286e-01,-1.850800856887329093e-01,-1.073248144215168121e-01,1.379889254259630479e-02,2.426525174106831939e-01,1.439321297135518485e-01,3.574876088172013362e-03,-1.581310325668005279e-01,-7.643821914684245655e-02,6.640944034519524752e-02,-1.348811596768008381e-03,-3.767090407727193002e-02,-1.205349916165141810e-01,4.737699884855776922e-03,8.657532115670385497e-04,2.790426577058547492e-02,4.773631852969850708e-02,5.152913480309671834e-02,4.824636862546974325e-02
-1.128298239765212152e+00,-1.093187217784846066e+00,-1.011808988970079648e+00,2.433578193074853804e-02,6.062098218229335133e-04,-4.593849366128521794e-02,9.567622943299133875e-02,7.292285455770670943e-02,4.591225155756264303e-02,-1.434835212661139947e-01,-1.149417976227534582e-01,-6.952823961232369732e-02,1.913368602275096753e-01,2.068743040480766071e-01,1.908803300321468555e-01,8.352347932927052521e-02,2.009085552851362644e-02,-5.519910957958720776e-02,-1.102176761138420613e-01,-4.570675899484384630e-02,9.993753942994270528e-03,-1.320770793066884385e-01,-1.728087739760347241e-01,-1.868512658076620647e-01,1.567708877143415558e-01,1.426537283095596909e-01,9.217518104065378082e-02,-1.369832162191957775e-02,-1.278911251342099240e-03,2.868227346715754994e-02,-1.172637955969340062e-01,-8.386548189462898761e-02,-1.443770777126701654e-02,5.038051300091055812e-02,1.000359789097869309e-02,-3.110299127848693140e-02,-9.758400752505698439e-02,-7.072900292799191857e-02,-4.278442886725284527e-02,1.614566994498375374e-01,1.571011396314515307e-01,8.801539228759347466e-02,-6.072422428160418467e-02,-1.173788127491809524e-01,-1.251894524380796903e-01,3.736759023071824226e-02,8.615046819559969704e-02,8.951652517465272241e-02,-2.118015033829214952e-02,1.170957908294324203e-02,5.865712669697652898e-02,-2.322954842863710762e-02,-8.316031027838495515e-02,-9.181386761608305302e-02,7.290337752927021631e-02,1.018311288130634290e-01,5.943529440180678886e-02,3.786003082621111626e-02,-5.545293851375600845e-03,-2.967538900127882420e-02,4.274294410151682246e-03,2.224171847632438331e-02,3.205437270799232907e-02,-5.283043268920292052e-02,-5.707344294230060067e-03,5.807077190748705792e-02,-6.220168052449731588e-02,-9.120977963975768210e-02,-1.115994463079389015e-01,-1.645392818842823703e-03,8.221590823912404422e-03,4.082412903583364228e-02,1.910029938242103001e-02,1.903595059860115242e-03,-4.391746404937572207e-02,1.022902633859912175e-01,1.013976270068234486e-01,6.855049309016247872e-02,-3.237095889641391361e-02,-1.087439948408940732e-02,4.603250845575881933e-02,1.309997891832769858e-02,2.070389834284368930e-02,9.111363392925744820e-03,-7.755747968331055953e-02,-1.122111020263397985e-01,-1.134126784771940094e-01,2.424374159642088411e-02,4.442640110830101130e-02,5.556820795234956867e-02
-1.093467175650784329e+00,-1.089811480369301977e+00,-1.023391774462948156e+00,1.008008351575327144e-01,1.010894226145348657e-01,8.611791260276939475e-02,3.474532931337682984e-02,4.634049171371706216e-02,1.194216982040662879e-02,-7.197271437765116742e-02,-9.918864053163015115e-02,-6.874893993735714526e-02,2.503099780840547378e-02,4.099255118366074840e-02,2.145859918615524234e-02,3.252819694519971244e-02,1.606961055035976624e-02,-1.074918307914765267e-02,-7.175035757836077666e-02,-5.960626625096777931e-02,-1.816900775666041579e-02,7.511452275188042205e-02,5.788104630457185928e-02,-1.965894039810012206e-02,-6.129665691732349986e-02,-6.156094132045629441e-02,-2.572498084869489707e-02,8.252894430180320040e-02,1.029983708461176123e-01,9.614340049301475788e-02,-3.068859237608573612e-02,-2.790575342422827593e-02,-7.834990713589387243e-03,-5.209881238732119724e-02,-6.582949749712835308e-02,-8.916956893750790925e-02,4.752027519505382103e-03,3.105039687889220301e-02,5.355135682620309340e-02,7.637338745005622931e-02,6.845188092409806857e-02,4.485456844312318836e-02,-8.941266779347396831e-02,-1.086000490228350435e-01,-9.585520017574596097e-02,2.431500349119807350e-02,5.151203044878101267e-02,8.979959914276454402e-02,-1.359331255403914938e-02,-4.752171728740151035e-03,-7.589728428746878724e-03,-7.870046112733144333e-03,-2.127126578173977114e-02,-3.192312972773138358e-02,1.788214594892406639e-02,9.940014154606113123e-03,6.998692703916018941e-05,-2.650039384728555131e-02,-6.193614276480863962e-02,-9.750488491495715171e-02,-4.039677932917218328e-02,-7.638553725514368384e-03,3.311271022522407209e-02,4.814147995785993811e-02,5.647204516339827257e-02,6.763324765624094403e-02,1.664551671204941852e-02,-2.025776523590243697e-02,-9.266799315250426328e-02,1.999249446834617736e-02,6.439722974317557691e-02,1.034837104719977807e-01,-8.344615403584762720e-04,-4.409418303347349688e-02,-8.636167544570183541e-02,3.220097203810363962e-02,3.153242752111809488e-02,3.385435953206065302e-02,-4.549993222438859092e-02,1.361533862163944418e-02,7.766474551247015690e-02,3.464279462517146080e-02,-6.294070102226656527e-03,-4.600075484482624155e-02,-3.789274329944017361e-02,-4.181430545353608669e-02,-4.040243529337087663e-02,1.783814073748443696e-02,2.843905044691931450e-02,4.219733830217851228e-02
-1.210017207088362579e+00,-1.239307570576705819e+00,-1.215378531976984977e+00,1.620600784387856708e-01,2.686865860403445661e-01,3.179542120726199794e-01,2.078658281827095999e-01,1.222832875412502573e-01,3.623233011068225512e-02,-3.783626191328722244e-01,-4.131065957015664925e-01,-3.229759775569391866e-01,2.774093999133086519e-01,3.571092553434357386e-01,2.251675627026631377e-01,4.665666913141239963e-02,1.046728533629362641e-02,1.309813632871828226e-01,-1.454191885841183973e-01,-1.889687982904122709e-01,-2.697518212549288585e-01,1.478060569268314917e-01,2.107415204232435391e-01,1.319790204227484220e-01,-1.757371429790046680e-01,-2.233678582592155126e-01,-8.925800762448470038e-02,-9.015684697139973725e-02,-1.108639677648167315e-01,-2.039748706872575590e-01,1.337294087241373830e-01,2.369394295247558291e-01,3.276249734924164825e-01,4.162424249871142512e-02,-5.894115585686528908e-02,-1.017001534635409710e-01,-1.195719761642151727e-04,4.731254851909584558e-02,6.109163180051994241e-02,-3.898485383158449558e-02,-3.836387157075425713e-02,-8.377469959720265646e-02,1.507552029733018051e-01,9.595208830151563673e-02,1.018610998969568526e-01,-1.847711467658863516e-01,-1.036430265969388448e-01,-4.434892661160958621e-02,3.403686250821362502e-02,3.939893451467049029e-02,6.028623124827649227e-02,3.655862799843597605e-02,-2.301147544584341079e-04,-2.411927042486185571e-02,-2.351557204809753138e-02,-8.956453175044412629e-03,-3.555301035861823528e-02,6.339466045376839637e-03,-1.217581656730169250e-02,-1.031617661210379976e-02,3.597017100098945375e-02,5.807381483394315203e-02,3.969240719392910094e-02,-7.303484986779719412e-02,-8.910731025630137803e-02,-5.226200594082765910e-02,7.879352043370022041e-02,8.729996822584730476e-02,8.637423223462362132e-02,-2.018192399009438934e-02,-5.751867328025475623e-03,-2.857423434257844175e-02,-1.265883842268099024e-01,-1.455207340661265891e-01,-1.193571034383415497e-01,1.609841568442757775e-01,1.680630077571314829e-01,1.132683048423921424e-01,-6.272778137395962350e-02,-1.021779503249619636e-01,-9.750565473024010166e-02,-5.549277295026606993e-02,-3.736079820184525641e-02,5.510232679642878975e-04,3.826977844840619147e-02,6.627081698954029321e-02,6.837966392145544692e-02,2.653043030651099435e-02,9.490451262251443226e-03,-2.471987141918739056e-03
-1.079932166548930317e+00,-1.056397799742053500e+00,-1.003087897533809336e+00,4.364240079688737339e-02,-4.365379744763217204e-03,-4.872869490446936347e-02,4.377864624390771786e-02,1.448474689449563528e-02,-1.147424207246629246e-02,-4.463733966063362923e-02,2.711235375555973853e-02,7.961439811463967564e-02,3.878056930586972449e-03,-1.326768882126610344e-02,-2.840902456665445053e-02,3.639498274804367495e-02,3.018649384845003766e-02,-1.425909572047940645e-02,9.634157504536534911e-02,9.141993259769136404e-02,6.495064538290808154e-02,-1.765511599688135702e-01,-1.463550168974205312e-01,-7.396830630067427470e-02,3.289736812619938056e-02,6.101527363108765617e-02,4.027801831891683615e-02,1.400858831930113235e-01,7.832861132323894193e-02,2.347280973694229958e-02,-7.006401816272898875e-02,-7.895837465594826576e-02,-5.165291991423674733e-02,-2.556907418320896949e-02,1.116030536149358694e-03,1.280557294653730110e-02,-2.587645167542017635e-02,-8.407274982129429169e-03,3.709447937292061764e-02,7.613876781190656584e-02,7.674597563322460569e-02,3.293887928558006384e-02,-1.384025110653210044e-02,-4.476861816419988593e-02,-2.618872574694561944e-02,-6.263691981309502110e-02,-3.498225159713613114e-02,-7.149057527394700462e-02,-1.277156072246591820e-02,-3.721114110571170641e-02,-1.081908005491937982e-02,3.441701082532421657e-02,2.738001800020477966e-02,4.460960355655516074e-02,2.298026240672886369e-02,4.895481499242034656e-02,1.674289672577193577e-02,1.283176739703082575e-02,-4.241495913569448897e-03,-3.620860377032032382e-03,-1.574516880170699282e-02,-2.216883245039580341e-02,-2.925983447008592697e-02,3.093874696778181610e-02,1.889459398510693819e-02,2.186352906848866573e-02,-3.549307018110312711e-02,-1.309444065631002081e-02,-3.906395129010497430e-02,1.140718264994838339e-03,2.581953529871290967e-02,6.672887954583812953e-02,-7.886422770691051132e-02,-1.112613021845780814e-01,-8.798599055803892066e-02,1.155416760426756922e-01,9.840604441209589714e-02,7.596549171201636384e-03,-4.749260451031506181e-02,2.662221083681343484e-02,1.362201693117414125e-01,6.522892922675019474e-03,-7.242929955736422676e-03,-2.489772685624858789e-02,-6.150476141264534652e-02,-1.044317563188975478e-01,-1.078606435057368473e-01,5.352351441590601916e-02,6.072740174927614143e-02,4.790642970500968295e-02
-1.198964479300101305e+00,-1.142277058356930608e+00,-1.007108097926619150e+00,1.562284737942455648e-01,1.019952669352721525e-01,4.252218683025754675e-02,8.776383421624830983e-02,6.091697208512414363e-02,-2.844863690002430792e-02,-6.190990937491179513e-02,-2.135691709238588670e-02,1.031014508923899960e-02,4.131465358117356740e-02,8.361451113532635329e-03,-2.595462489777392023e-03,-2.086944243724265374e-02,-1.510221600367862849e-02,-3.411221014254237766e-02,2.111683897486747296e-03,2.765120635022406612e-02,4.260298306038343835e-02,-5.656546791475954711e-02,-5.474297250500137491e-02,-4.961416990148180550e-02,2.744337917426184145e-02,8.524484204917539458e-04,7.910088918900543345e-03,8.807629889932390432e-02,7.867754813733296437e-02,3.494222584581448132e-02,-3.622997609656150586e-02,-1.374717936513738560e-02,-1.937969906873051804e-02,-3.804120838624298201e-02,-5.309199108676144335e-02,-4.028234628728564332e-02,-4.448603857639822634e-03,1.098648372718195182e-02,3.138155097544587102e-02,2.806435343179116554e-02,3.633441458073207245e-03,-1.140319317359702808e-02,4.646913199339106765e-02,5.615304143185403246e-02,2.847865759233851601e-02,-1.047162282768867997e-01,-1.012977615393185066e-01,-6.469136742039063859e-02,1.154791042938905186e-02,5.546362261173888933e-03,-2.882122331342469590e-02,1.592111333146389307e-01,1.576550726405981651e-01,1.143495582201316391e-01,-9.695120411037937147e-02,-8.273024801017453411e-02,-3.700412155646980693e-03,-7.993667610728084905e-02,-7.923171864589385882e-02,-6.916370514680390824e-02,-1.723341306214121529e-02,-1.183538737516412823e-02,-2.247961119085172682e-02,7.723539060943243606e-02,7.823998444684064635e-02,7.709094473243155443e-02,2.740918728764631454e-02,-1.647031501321809949e-02,-3.405794586751369202e-02,-3.804326539960516812e-02,-3.076795775357462487e-03,5.040210303412914414e-03,-6.926007379662664498e-02,-5.571062782160268734e-02,-6.760936661474216403e-02,1.322047634361834256e-01,7.618909382689492693e-02,2.962163977494496753e-02,-8.234858361272678895e-02,-4.510933965688826430e-02,3.873680172548239764e-02,2.863336301280127328e-03,-2.004089603255261587e-02,-5.955903881901935398e-02,2.503851542262042207e-03,4.086404327491657135e-02,6.072723923592705797e-02,1.515128407965865044e-02,8.174280422769301252e-03,1.940264203901161805e-02
-1.044294427898003752e+00,-9.524707831172076755e-01,-8.632686700218364928e-01,2.562934116404330664e-02,-5.256695044342091228e-02,-7.195793543509385048e-02,9.649544148264524446e-02,1.207748011978161257e-01,9.873869489354596130e-02,-1.391370382335986033e-01,-1.935536534304525547e-01,-1.832816465808405071e-01,1.096181756753177583e-01,7.470463417758736735e-02,-9.859604724816926208e-03,-5.155340761503405395e-02,-5.087780049828697498e-02,-7.490405998616829486e-02,-3.742503494679082221e-02,3.770415577275031821e-02,9.258387341364071599e-02,-2.028478209518685960e-02,-2.717336378445297379e-02,-2.980810431553483283e-02,1.889769211274973035e-02,-1.670534478285784497e-02,-4.021049112833496864e-02,1.962688708313861316e-02,5.340713866867115300e-02,6.774592228857508058e-02,1.977344023053072969e-02,7.562064000479772757e-03,2.067254166048259137e-02,-3.704528024427829885e-02,-1.087776427096947586e-03,1.979621379534964726e-02,-6.070566769760410257e-03,-3.792423577455330402e-02,-8.070699063867228795e-02,3.569074631946731607e-02,3.129286985681199208e-03,1.168398051079372855e-02,-5.281404851062701175e-03,2.071113784217793602e-02,5.393713640326525116e-02,4.377678687792442569e-02,1.107315398399901299e-02,-8.563820098972764472e-02,-7.854368118129953502e-02,-2.868196746512606879e-02,3.541008631001463930e-02,4.098928860869362895e-02,-3.246781948205834396e-03,1.804068139477235655e-02,8.654769298460701990e-03,2.350856001433963144e-02,1.740337174597198638e-02,-3.754526486587045353e-02,-3.262817006782042090e-02,-4.066780107873851913e-02,-2.327484689772627360e-02,-3.186084036961868426e-02,-2.016421508693664807e-02,1.061898876766710909e-01,1.185229932012809989e-01,1.026604510350396515e-01,-5.328444841870413201e-02,-3.955357217517726370e-02,-7.502876497660729282e-02,-1.609775676376816456e-02,-1.798794339727320755e-03,5.612047341253195709e-02,-6.764480142903191683e-03,-2.041686276288166499e-02,-5.842012651690486891e-02,2.603342021765941636e-02,2.916153514933970264e-02,4.603703001204842438e-02,6.774424630892486587e-02,5.688553202190518854e-02,2.396855508631583892e-02,-1.182068590249459455e-01,-1.192284683685923413e-01,-7.505028683454556537e-02,4.813896588781861607e-03,2.238920593756618671e-03,3.764148564621683235e-02,5.103880092735862267e-02,5.051332627400952763e-02,6.611789822754452102e-03
-1.275763583175866245e+00,-1.229768854244734921e+00,-1.103284018343156703e+00,3.287177532848304939e-01,2.331392246467854368e-01,4.628663335451146249e-02,-5.009032829590311792e-02,-1.239997257546099092e-03,5.660838759706467854e-02,-9.042815862579241595e-03,-1.307567938762160820e-02,-6.601481460335043711e-03,4.544121793301995199e-02,3.006132333693232669e-02,-4.707618094406608618e-03,-1.344972253852053656e-01,-1.223312824773785112e-01,-6.907316485580190790e-02,1.022252557150982871e-01,8.058213612877079823e-02,3.762990454677367369e-02,-1.010856602770559692e-01,-5.904680535429328997e-02,-3.065690182461662527e-02,1.286238995797757412e-01,1.056824742358905278e-01,8.769640663562426608e-02,-1.724720700805119217e-02,-2.716566642377555088e-02,-3.823943007834169211e-02,-2.703600359677590242e-04,3.454971731029870402e-02,3.985428252823658424e-02,-2.799691553074074718e-02,-2.934139399693194011e-02,-2.044906509593424904e-02,-4.158306005297848600e-03,4.170079269387200194e-03,3.831460853972636083e-02,-2.576816129370339617e-02,-4.702854857685532380e-02,-5.120141163486782721e-02,9.827331958000607576e-03,9.131281281927821139e-03,-1.037491231773685248e-02,-3.848307449937778818e-02,-1.115235735102709964e-02,2.757729339492043415e-03,7.072280823662628613e-02,4.229490938540591410e-02,3.429176932049478321e-02,-8.383331794879003707e-02,-9.776951459808486122e-02,-6.224569331476977746e-02,1.357072107197474509e-01,1.542826116392994329e-01,1.020984153325139726e-01,-6.225720551277465903e-02,-6.021870101282294357e-02,-2.763042454791670224e-02,-4.607881103609800383e-02,-3.101703905531448535e-02,-2.894411443442393428e-02,5.301521050255632306e-02,2.873442450611872825e-02,-1.761746470465599609e-02,1.545278106758298658e-02,1.253668611233818217e-02,6.939691663658441138e-03,1.733587536107121345e-03,1.348606399924152238e-02,1.883281655409769963e-03,-7.668174136626983162e-02,-7.702213389696745127e-02,-5.996391147214678863e-02,1.392915314925900205e-01,1.294195313661895830e-01,9.764360105624482478e-02,-1.088446422095639965e-01,-1.164994113192517333e-01,-2.810735693371427951e-02,6.173534692711321603e-02,7.345908021705788160e-02,2.361894304383108795e-02,-6.829605433771114564e-02,-6.648931987885972617e-02,-4.545258969141269950e-02,3.807032027064015389e-02,3.777086186638813070e-02,2.900348257066629951e-02
-1.171779709184711749e+00,-1.094687402928982589e+00,-9.408950350802161022e-01,1.226244041348750619e-01,3.980975732313492277e-02,-3.602771534643561119e-02,8.259860329288534753e-02,7.810366334864762838e-02,1.287818403417413313e-02,-7.059295743481465435e-02,-7.428143480044856195e-02,-8.649276263483096638e-02,7.205729771838095821e-02,9.308840156825121115e-02,8.141702453885156510e-02,-3.488112337757331288e-02,-6.243768993060226646e-02,-9.200792638098873044e-02,4.213860531060441977e-02,5.479451489885618642e-02,1.338575022340717825e-02,-1.083469871927363326e-01,-1.344645286404896056e-01,-5.479800043053754260e-02,1.051879274701383593e-01,1.166097036254422764e-01,1.020691905315014580e-01,-1.564797541794623117e-02,4.128495866743330141e-03,-1.266127698937163579e-02,-3.588759290567836158e-02,-4.831824554722745357e-02,-1.541358572013571369e-02,-1.604974928565431475e-02,2.077802553726858931e-02,3.486018314100713250e-02,-1.866123711934150955e-02,-4.089507047474892631e-02,-3.118893520283420873e-02,1.045017070515369961e-01,1.012022833130002547e-01,6.105404828187473154e-02,-1.145158154776472655e-02,-1.007039871950975163e-02,-1.021490015786234197e-02,-1.593625649964585667e-01,-1.294593274807409045e-01,-6.712496586157641609e-02,2.847946973158825903e-02,1.643695972934044666e-02,3.625410418095288689e-02,1.994164394169429810e-01,1.285447513130075492e-01,-5.424545729628631185e-03,-1.161523869246756380e-01,-4.991079295034515223e-02,-5.142912572234855338e-03,-5.333816035976060577e-03,-1.229421089846839850e-02,1.099090841989907967e-02,-8.261700581247441444e-02,-6.291648824454174060e-02,-1.121789735804810256e-02,7.731578800277584540e-02,3.763222648076620241e-02,-1.973034456270659001e-02,3.848389242054189863e-02,4.940921311750831602e-02,1.499355750305025360e-02,-1.106285164357984074e-02,-3.862370212061167624e-02,-7.505389592323442882e-02,-1.630613521603455351e-01,-1.048886155098273931e-01,-1.934009830208443387e-02,1.703503624561221730e-01,1.375202541235524267e-01,1.389227785418543915e-01,-6.312811852441271854e-02,-3.801664216197876700e-02,-1.510127039311170809e-02,1.963028013283810158e-02,-3.587002047381237114e-03,2.255575184352745857e-03,-1.016564425010661743e-02,3.878071421139019787e-03,-3.623053849358730261e-02,3.151659640195478979e-02,2.301960838378380031e-02,2.507470423065851287e-02
-1.153052754050554185e+00,-1.070744912941173022e+00,-9.130925481296553459e-01,9.337372313146703739e-02,5.634821239391448605e-02,7.397900977805181230e-03,1.166685765746943576e-01,4.179854047364699177e-02,-5.826147708876582704e-02,-3.696939351404068819e-02,-2.397767486384210986e-02,-3.121012957036304464e-02,-4.688688968715400834e-02,-1.534661452958644388e-02,7.147592930996337669e-03,9.002458178505236275e-03,7.273094468930089984e-03,-1.629489400905469870e-02,-3.395760642355549058e-02,-6.501707637218538671e-02,-3.929800448724827394e-02,-3.390871530101283865e-02,-3.998665017378924547e-02,-6.544979223019176118e-02,2.836168025396667083e-02,1.981213795335300121e-02,1.283301424972449305e-02,4.623536870937964421e-02,4.955237584782810206e-02,1.231226749675013755e-02,-2.435090031707528788e-02,-2.281873468806193406e-02,2.365491284637897054e-02,5.115880123529337534e-03,5.844928418607586718e-02,7.831049502828368869e-02,-1.350680562398593951e-02,-2.452950617149378398e-02,5.500559453585454270e-03,9.275801214193650501e-02,4.091715795940736172e-02,-3.891120988477685810e-02,-2.481179578720641571e-02,2.728421591320291315e-02,6.220258858562006943e-02,-7.249052069791300790e-02,-4.941166155933853638e-02,-3.887370323313766446e-02,-1.948927628290045896e-03,-3.629801032925918797e-02,-2.546299646972736280e-02,7.803384511839349391e-02,8.115768394047510881e-02,4.423512037090135407e-02,2.791931572361821753e-02,1.894103510774337515e-02,1.681783587268048663e-02,-5.228370908638861614e-02,-4.113337919913440804e-02,-3.716107518002254723e-02,-8.042827148179067243e-02,-7.658389512883793937e-02,-6.205345234231390145e-02,1.074571628552273700e-01,5.204609706928396001e-02,-5.558793634948063118e-03,2.229049949462513780e-02,4.099949591549632150e-02,2.725327243523710877e-02,-1.366992280980884426e-03,3.821325943733216990e-02,4.182975867566255529e-02,-1.441285557129875494e-01,-1.671916414357798863e-01,-1.292104707315096801e-01,1.317637914137727573e-01,1.240656284221658689e-01,1.154425721567825108e-01,-2.995220962697725878e-02,-4.792889288449535962e-02,-1.819294269580363360e-02,-5.544875019736961869e-02,-3.703583511006442591e-02,-2.796571990024092694e-02,3.694295986887197181e-03,5.504708247172333119e-02,6.476851226620200519e-02,4.296468389452395842e-02,6.227033577623777676e-03,-1.261535286282947955e-02
-1.211377004065853358e+00,-1.151186581902260198e+00,-1.054820413849748340e+00,1.974488216033077337e-01,1.202489732217989216e-01,5.418880384123374999e-02,3.498886958645908846e-02,3.148640433760199059e-02,-1.474231471393179158e-04,-1.278968680545664593e-01,-6.963637683047770033e-02,-3.025472760749055995e-02,1.493993637650263828e-01,6.652700645853117101e-02,-5.294352754947469555e-03,-1.364582546100958915e-01,-8.810100189535027826e-02,-2.257032224441510651e-02,1.084110454800399220e-01,1.547025518744076997e-02,-5.978447125436627679e-02,-8.947381637263744636e-02,1.576090950760813611e-02,4.582982940041923497e-02,-2.350790442054055684e-02,-1.198923255007367395e-03,2.008474641236872651e-02,3.173932504841461832e-02,-2.139980839186444647e-02,-2.450426301575553065e-03,7.887726651057150318e-02,5.793726624771514816e-02,9.622274485260947849e-03,-9.886181432416592252e-02,-4.348477518529311747e-02,-2.169773431411232273e-02,2.129634582586683103e-02,7.162240152619381295e-02,1.384381754475549342e-01,9.533799586306862528e-02,-1.571189052274115858e-02,-8.109106468252047506e-02,1.512281031143965053e-02,6.586404163534334555e-02,4.901106840798197251e-02,-4.987978769468410373e-02,-4.223810192325112844e-02,-4.924311696607215627e-02,-1.830432824424663846e-02,-7.654418283158348491e-02,-7.588658643929178937e-02,5.875686652892436745e-02,1.232322669345417426e-01,1.369667553809768290e-01,-2.086604131631706813e-02,-1.396743088283864190e-02,1.218711213159562410e-03,-3.232144885525779776e-02,-5.326751125736757519e-02,-8.783064119966846328e-02,4.058733322638387320e-02,2.573279456183045696e-02,1.360162595891173387e-02,5.185040886235416785e-02,1.765675792491264509e-02,4.402514498979109847e-02,-9.103704560408605595e-03,-2.315073269966834869e-03,-1.005908953354512844e-02,-6.341876134321511316e-02,-2.302796598580995543e-02,3.761970733476682066e-03,-7.049026470197577998e-02,-6.160616920250263501e-02,-3.645045375453345726e-02,1.154931421550010467e-01,7.081449120434761546e-02,1.938574394506787854e-02,-7.525789453150447117e-02,-4.903546808069918217e-02,-1.605456020802066563e-03,8.745530580065821735e-02,9.815431145947794978e-02,6.220272305638685495e-02,-9.173555698243857082e-02,-5.414205474430065779e-02,1.019030204569411346e-02,3.230865390491715478e-02,-1.354167998416539419e-02,-6.925825426423215525e-02
-1.232080560866172902e+00,-1.124053424434730886e+00,-9.559604186892953770e-01,2.075833419953451442e-01,9.962812265670319134e-02,-5.374083095159425463e-03,6.639366406686129929e-02,2.869654557750556459e-02,-4.160297879473930788e-02,-5.633532634524281157e-02,-1.262700890112463878e-02,-4.642195765881215221e-04,7.832832787832459676e-02,7.266752561881588413e-02,3.115802265693511444e-02,-1.315622178894006733e-01,-1.194860755277655784e-01,-5.752603850482695957e-02,3.524755609425095360e-02,1.103380111348914623e-03,-6.236123264018946129e-03,-4.511322328229029621e-02,-1.949424398514124860e-03,9.453296371975464241e-04,5.528547398910339111e-02,1.847973506287926143e-02,1.814536286507276944e-03,2.733731919949035361e-02,1.674500685283042758e-02,-8.283996849433171439e-03,8.866486360205221018e-02,6.774063990181086736e-02,3.298393305653308377e-03,-1.708652548387621650e-01,-7.816586746668727215e-02,3.701317355940611509e-02,1.333618889512928340e-01,7.986087641238535928e-02,1.036450797689047673e-02,-1.306532813781086447e-02,-2.132075768852579115e-02,-8.955563956474151335e-03,-3.391009145642942535e-02,-4.665107398774574060e-02,-5.370284378350749510e-02,1.524135244737058990e-02,4.822177166441023871e-02,3.717917894885677810e-02,-8.142679530341380423e-02,-7.343190513324321378e-02,-2.238180418717388223e-02,5.087369284375352352e-02,5.644876480301798394e-02,7.971702560153064165e-02,-1.083420608043113159e-01,-6.795752912064868811e-02,-3.798227608746942291e-02,1.374326774099897674e-01,7.669571475540756800e-02,3.313136212655665158e-02,-5.073903755307231783e-02,-6.551031510985130812e-02,-1.034765525816664505e-01,1.087641141354238859e-02,5.251074342255372673e-02,8.659400941237764548e-02,-4.827875179510555254e-02,-6.933637049214601278e-02,-4.003172913679813039e-02,3.453274466344245786e-02,3.217632182584376915e-02,1.830724729151153238e-02,-5.532487830207679508e-02,-4.226354708567080232e-02,-3.253898669963886658e-02,1.054214595716329722e-01,8.699801961443531795e-02,5.890310971489571418e-02,-1.390999786342574270e-02,-2.515949041375637601e-02,-3.842103660455473829e-02,4.655577744311911736e-02,6.188491151290573949e-02,5.821031909976416563e-02,-1.052578218537133237e-01,-5.655449620987239301e-02,1.452381531242136203e-03,5.322053840831616339e-02,4.704374633492804970e-03,-4.508928170174261035e-02
-1.313849327601022576e+00,-1.281821414698324890e+00,-1.132288991615284290e+00,3.507539449911397655e-01,3.087222052849945553e-01,1.724057963474726618e-01,-1.073796063742815943e-01,-1.022974841282102143e-01,-1.037078455921926351e-01,-6.217046569195629896e-02,-4.727512548169796047e-02,3.985304893850423469e-02,1.339690692116176918e-01,1.135421158622985233e-01,3.216146502364605059e-02,-2.320215434187689399e-02,4.467529500800973552e-02,4.379681099117662540e-02,1.005587287486056636e-01,3.627748451306245930e-02,2.191435711185834440e-02,-1.667777979690122092e-01,-1.506391354655104153e-01,-1.513754711105586848e-01,1.113837743732521562e-01,1.077230476594873976e-01,1.400362806953123485e-01,4.219067627223384298e-02,-7.533838939683243710e-03,-9.008834872686967421e-02,-2.673312099958613866e-02,1.917493309973508989e-02,6.679925173992468102e-02,-4.471361897131682223e-02,-4.690264114857631977e-02,-5.859122200814070175e-02,-8.356900672720010345e-03,-2.200710533400655061e-03,-2.298557194721299532e-03,-3.642108574332170168e-02,-7.796932680310814101e-02,-6.195295879409213474e-02,6.857066446393712822e-02,1.155501846176404251e-01,7.335866777443154907e-02,-8.462932177780028986e-02,-7.430399822865219051e-02,-4.889919034796179342e-03,6.197753717902892978e-02,-9.952823378599420442e-03,-6.971586733677521963e-02,6.320026613726349544e-03,8.884657223568338813e-02,9.401799814415973122e-02,1.412636053145450120e-02,-4.366016914836126639e-02,-3.313406234619083179e-02,-4.680046625557953560e-02,-2.736586272860415045e-02,9.012655632648138362e-03,-1.622181877208530090e-02,2.890101430992212533e-02,-4.875308076540004441e-03,1.335229202716106157e-02,-7.029509150566774778e-02,-5.864358350818257154e-02,-7.115792594985968778e-02,-2.384671512987006012e-02,2.527665598645397263e-02,1.116972510832635462e-01,6.754392074880215258e-02,-2.711883543023721130e-02,-3.545269242370815976e-02,6.362023674456296005e-03,5.235369635874678740e-02,1.455446327969835696e-01,1.016781072105900213e-01,9.446368823823856481e-03,-1.710594687795383706e-01,-5.176323038410926558e-02,7.312038306731699633e-02,7.688135065952587943e-02,2.391497187824360299e-02,-4.012110405533735741e-02,-3.977297011729447052e-02,-7.797675135301625204e-02,-1.757563475508089681e-02,1.757039934272580997e-02,3.305919547618611093e-02,2.955153889352956156e-03
-1.054258739938766176e+00,-1.054279857517256502e+00,-1.046685043348967392e+00,2.317249157750007893e-02,8.992374658888581396e-02,1.594549628657836726e-01,2.472742158695357545e-02,-2.700399847909819989e-02,-1.117313388696209442e-01,-5.039739453850240747e-02,-7.332892978099679604e-02,-3.881466338093494256e-02,7.678118086672591769e-02,7.775546629055936354e-02,2.862782799527618938e-02,-7.318315507372394335e-02,-6.787194098505602846e-02,-2.966587925625418717e-02,3.380067185426716136e-02,4.100691389333960962e-02,5.938169693211941408e-02,-1.518647472336385196e-01,-5.715891908615521738e-02,-2.998849995370984553e-02,1.763266412842266484e-01,1.067655273878012345e-01,2.149074506163081016e-02,1.112145048418610935e-02,-8.566091821629916170e-02,-9.578506872670308758e-02,4.306692442506966645e-02,3.615105291385211500e-02,4.112519494942482728e-02,-7.857490476935070911e-02,-3.119403152653511119e-02,-2.298216428534206879e-02,-4.171571131027004137e-02,-5.735769597563057653e-02,3.099343489029423356e-03,1.222896577306677723e-01,1.395370585993069568e-01,4.334325584349822680e-02,-8.768647758768816081e-04,5.561617494417626234e-03,9.974844009345125440e-03,-4.959838032615064563e-02,-5.651387799233243553e-02,-4.256012431776910743e-02,-9.503668011802096638e-02,-6.207952338367830197e-02,-2.487503598964876592e-02,9.955030855686627933e-02,6.565092271935844825e-02,5.711682480972252868e-02,-6.386750838570134925e-02,-2.503888164824227824e-02,-1.483603665198158540e-02,1.979431523557489275e-02,-4.795140333686960694e-03,2.473315848330820063e-02,1.972976261117684663e-02,-1.234927816823990637e-02,-5.534774411174415987e-02,3.643997036255089417e-02,3.920586172487387083e-02,5.914238974359331547e-02,-1.727231469725503885e-02,3.230666911371993938e-02,3.136557799641808558e-02,-4.502890455269615427e-02,-4.366723043681380867e-02,-7.210435646639125340e-02,-1.316760593789794986e-01,-9.919613367597467091e-02,-1.141453194477839647e-02,1.814515546261087076e-01,1.423575790181958456e-01,6.566617732676786889e-02,-2.621301387519712426e-03,4.235425315285550399e-03,3.499927438252074113e-02,5.860362302052867997e-03,-1.808033819082661281e-02,-3.517229897060759197e-02,-8.716348849493341100e-02,-2.812995418700424063e-02,4.731471691920373368e-02,6.913331897000131454e-02,2.336497925900257386e-02,-5.476586763143436593e-02
-9.505642251372309337e-01,-9.580339760088715240e-01,-9.035667559022358963e-01,-1.212135007561027239e-01,-5.828780117189739235e-02,-9.849516265803428747e-03,1.381602068037101894e-01,1.143617738265207268e-01,1.561678539745106967e-02,-8.897218399202662387e-02,-1.293890262190954266e-01,-1.122047467753632261e-01,-1.311169874458336104e-01,-1.438995229050025471e-01,-1.070434405315111304e-01,2.290979929813388161e-01,2.764601284977311613e-01,2.296897130262879894e-01,-7.911974333926563574e-02,-1.379749448373844556e-01,-1.825582385268346708e-01,-5.814420756746820074e-02,-5.904197515968582881e-03,1.096816455473514640e-01,8.211549019860803211e-02,4.067229547233537634e-02,-5.192249899651724121e-02,-6.017284616790005702e-02,8.587474534161025630e-03,8.002573373714377825e-02,-2.091439742975893974e-03,-6.524912063080839930e-02,-1.114467150628156017e-01,-1.015462679579293565e-01,-9.258100984808838307e-02,-6.460108938801596701e-02,9.613442306722853881e-02,1.382921215233942625e-01,9.577831960083593721e-02,-6.527927400982173889e-02,-1.063707120788489890e-01,-7.852739172813041901e-02,3.984216221480314096e-02,7.135888298982410831e-03,-3.712548382604115293e-02,5.160305807507494652e-02,1.339300897836323001e-01,1.588523914527933956e-01,6.355205784057402219e-02,1.302760510577678082e-02,-5.061592233524163376e-02,-1.490076487034551755e-01,-1.561332191852274343e-01,-8.001845460103750030e-02,9.451201063961613136e-02,1.480458319030749370e-01,1.438920789143746104e-01,1.011818419562247884e-02,-2.773701042319272683e-02,-8.483598231529378142e-02,-1.355981607539165704e-02,-4.145977313067191611e-02,-2.644257684374384798e-02,2.624542943560814398e-02,5.313858704669084665e-02,5.074312006656245960e-02,1.079579509293394218e-02,1.509083351129112717e-02,2.162397848256746025e-03,1.383845484378753987e-02,-1.944435114147585048e-03,9.912678098137320606e-03,-2.035433954369769705e-02,-2.610326000386939058e-02,-8.194242382917138121e-03,5.429812791549317591e-02,7.773170903676261678e-02,6.361183798200363559e-02,-4.227216753396231819e-02,-4.020015502429875182e-02,-9.719004884728196791e-03,1.034207360375575743e-02,-5.571627824905957781e-03,-1.992022297926713051e-02,-5.943885863671187486e-02,-8.283573641966171519e-02,-1.000067268385805702e-01,2.278375010501968237e-02,5.367821829188543920e-02,7.889558254205873700e-02
-1.175170663070906230e+00,-9.772780295777787618e-01,-7.334741317957552686e-01,7.286864402254716877e-02,-1.124713467533370315e-01,-1.930561161657423364e-01,5.510213241185169669e-02,1.164349838347781829e-01,4.811284414401189452e-02,-5.534327335146268373e-02,-6.206783415045574043e-02,-2.389374263398022849e-02,1.120022842808136160e-01,-7.309241768878503576e-02,-1.721269437790186319e-01,-4.390302234864663922e-02,6.708209729290900980e-02,1.802956363641083568e-02,6.383394281145218785e-02,1.027968395412494768e-01,3.747185210148309270e-02,-6.265122783709861642e-02,-1.440590123269335221e-01,-1.005415580646304846e-01,6.721865152442030311e-02,7.358391232145369831e-02,1.005827611675167849e-01,-3.920354621365151199e-02,9.287715787799277409e-03,-3.023947231043043471e-02,-1.741199086053132200e-02,-3.284276093586012413e-02,1.283122487534051059e-02,-7.260637560572378787e-03,-5.723376922382521215e-02,-8.540347543485150850e-02,-2.639574525387341358e-02,5.625277761346380440e-02,1.031815443525685438e-01,8.745113983189270121e-03,-2.256520432786774007e-03,-7.979423440659501321e-02,3.922097197019090709e-02,-6.698903927748386944e-02,-6.140703177441966115e-02,-8.927864568410333324e-02,7.219784016016543050e-03,9.103196518650408242e-02,6.390794087920589894e-02,6.967309395357181023e-02,1.937944324623729758e-02,5.029761847608454906e-02,-1.417858613825821214e-02,-4.895021851891168119e-02,1.330871356286185588e-02,6.263832297461614795e-02,1.119443739532999110e-01,-3.023082061747468970e-03,1.501881125848042280e-02,-1.404556682859069150e-03,-2.892115502356212842e-02,2.977426395708504883e-02,3.662867744818438381e-02,2.709873231711996955e-02,-6.148914095094321769e-02,-9.092009465631913090e-03,9.596948497112926454e-03,3.212934288050726256e-03,-1.855441954236689353e-02,-1.151608576106388088e-02,2.179119835848226938e-02,-2.431111782689148945e-02,-1.178770331169879809e-01,-8.128681414439473119e-02,-6.240787943732794413e-03,1.473618017097366728e-01,1.105496998382730772e-01,4.558006533299762547e-02,-8.994261980584056584e-04,-2.662924432512119022e-02,-3.736159508218060005e-02,-6.121146278572476424e-02,-3.423251008967174297e-02,-1.667429410698490280e-02,5.238041654148875570e-02,4.847742127372452886e-02,7.671431667508765706e-02,-4.264151521309123005e-02,-4.745959808167260485e-02,-5.876214419896833019e-02
-8.389797053896235202e-01,-8.233575310844266637e-01,-7.067581031672480751e-01,-8.980165779851446983e-02,-1.110125693117614831e-01,-1.647507358081213846e-01,-4.270651593298485649e-02,-6.159698905383249184e-02,-1.105817313623922299e-01,-1.477439223020592385e-01,-1.109363853761556884e-01,-9.549150559507402214e-02,6.949800004329494130e-02,7.255970279156975788e-02,9.862301680377735802e-02,1.280333053132809429e-01,1.435794198266911181e-01,4.735332658652525312e-02,-1.580065180891544463e-01,-2.743699952160273958e-01,-2.012453707951840920e-01,1.104395308531721520e-01,1.811559456681151592e-01,1.416888254752515786e-01,9.279328770601164011e-02,1.097161023268339169e-01,4.564757995195895673e-02,-7.220199503240608274e-02,-1.146591598502426507e-01,-6.507524590152312383e-02,-4.856024536391820301e-02,-7.230998384117763404e-03,5.799823172435519814e-02,3.621099627395163445e-02,-7.636168339729751744e-03,-5.483538510491184348e-02,-2.674730467365879147e-02,-6.809020807661443631e-02,-9.511161135284010304e-02,-6.132096327228359761e-02,8.458909438482822840e-02,1.163879958233013379e-01,-1.177327613789693056e-01,-1.488961678169865577e-01,-9.376774548867269909e-02,1.701146940064418578e-01,9.895907531541363322e-02,7.662153414535688434e-02,-1.920125516968866630e-02,1.600900371086625903e-02,-7.205442661412484948e-03,2.955288051569101432e-02,2.242282296913599218e-02,-1.010580750990118168e-02,-2.888598358899975571e-02,-4.453443934193025699e-02,-1.814452610417071482e-02,1.076331823009296293e-02,9.969671545468709872e-02,9.676977669034346474e-02,4.019181002332684188e-02,-7.616237336499249999e-02,-8.556309992594508806e-02,-8.117719092089217131e-03,5.467790886025213765e-02,3.166141328955825174e-02,-4.376424774882736735e-02,-2.812765326399799606e-02,5.746699316386575870e-03,2.947301927833776217e-03,-2.044128502006326703e-02,-2.989447038864699591e-02,-7.433301138188085078e-02,-7.942930880661880355e-02,-3.106435706860437296e-02,4.337262872583387552e-02,7.213537173350607901e-02,2.506114077791657055e-02,7.090649041787289164e-02,-2.019768132065315538e-02,-6.538472201933544226e-02,1.056346566155285521e-03,1.203806055023804583e-01,1.524996834384243494e-01,-3.454547499301396235e-02,-7.581373237892267969e-02,-3.898800007853662347e-02,6.979561266944937087e-03,-3.177166960267738954e-03,-2.189264397537771592e-02
-1.012982963679115445e+00,-8.879116373869687662e-01,-7.167165785316114146e-01,-2.602582093265076377e-02,-1.329653220739629160e-01,-2.511299031233003576e-01,4.533597303674609391e-02,-3.419492225036602912e-02,-4.562008028628018741e-02,-1.254367922742097297e-01,-3.736995930503624053e-02,-5.909726767609291970e-02,1.073251992520331682e-01,1.249809006033559267e-01,1.382629249206912547e-01,9.610333047796815534e-03,-3.560724956468309249e-02,-7.596450325738041132e-02,8.648940004768368786e-03,-2.384240901153966002e-02,-1.897470448365059723e-02,-8.424178237964037586e-02,-7.094677758806723633e-02,-8.720027874337020479e-02,3.539719555918079130e-02,4.613305256738762378e-02,6.631809219543596812e-02,-5.944355633390827065e-02,-3.055170977113640107e-02,-1.326305025028214069e-02,7.774509911268570606e-02,1.065334191774003625e-01,1.181273394591203091e-01,-7.416141968189332578e-02,-1.112829047121385306e-01,-1.198929561331736615e-01,7.467937205588676131e-02,9.017221549395761093e-02,8.827430447590371709e-02,5.247715554068408533e-02,-6.788383435330473323e-03,-6.577449953139946626e-02,6.693314292053781671e-04,-2.658505549190473896e-02,-2.040692784692029263e-02,-5.870910010364868703e-02,1.337048334530734593e-02,3.568846166146832227e-02,4.330176521025457838e-03,-2.198004279838888797e-02,-4.820335179710320134e-02,1.298289138971169265e-01,6.327950760714197431e-02,1.944560748005659534e-02,-1.630770407985550619e-01,-2.767385781628833863e-02,3.272505845265608060e-02,2.143632231792766407e-01,8.917905630116178262e-02,2.465548894603860480e-02,-2.070260985557299260e-01,-7.873582498230001503e-02,2.746372072230400530e-02,3.327255010000696595e-02,-2.249812832298666784e-02,-2.455919193265925296e-02,3.243448546133503169e-02,-1.399467997945983604e-03,-2.051434308564073147e-02,2.502542685430709027e-02,8.156178318836419805e-02,8.019085344178537855e-02,-1.123058466618663404e-01,-1.448257536312592131e-01,-1.194515119275261633e-01,8.582869608248755444e-02,7.797448119142116885e-02,5.889222167080031267e-02,-3.380913297157611599e-03,1.282094298841333566e-02,3.049141384903603785e-02,-7.920460779788428274e-02,-4.050986080605457895e-02,-2.791783149815536130e-02,-7.993586792771761873e-03,-5.766093135360278454e-02,-7.353903784886201001e-02,7.727204038404074382e-02,8.756488891098758442e-02,6.787217603175929592e-02
-1.114492184792712504e+00,-1.153741478438911505e+00,-1.125445244093507435e+00,-5.309412143937877748e-02,1.473036827476579269e-01,2.995278331402693173e-01,1.217329652632740400e-01,-2.521598493502185540e-02,-1.260703461190121888e-01,-3.455944389161016983e-02,-6.330634991898677344e-02,-9.029166974627417241e-02,7.656799099611463766e-02,9.997459446092518687e-02,9.063118486856636125e-02,-1.157974048440036374e-01,-1.234925163458527736e-01,-1.189133757092188520e-01,2.889856150455960906e-02,2.344866584184079547e-02,2.905994960983159306e-02,1.579732286664563556e-01,1.394463334416638500e-01,3.781148739155461899e-03,-9.025884172185549836e-02,-8.363402953038226451e-02,1.772940686299261104e-03,5.279438167282858585e-02,9.594289501080072169e-02,1.047450193021407516e-01,-7.209811473670907182e-03,-1.004725260866312225e-01,-1.435847356625207516e-01,-1.362093920523010648e-01,-8.500036562946709784e-02,-6.015640865102620666e-03,-5.563702033492618632e-02,4.533280816781883049e-02,3.316455871881331119e-02,1.433463343444698890e-01,2.209737516477469632e-02,-2.347150709764531801e-02,2.252702993865946662e-02,3.381760918178121356e-02,2.422409406051078545e-02,-4.689687674512911519e-02,-2.363888817076192569e-02,-2.714136646411896558e-02,6.341118586115637723e-02,8.367002519266873717e-02,9.307209559743666316e-02,4.559787453272946128e-02,-2.557742836235374351e-02,-9.030408822884933295e-02,-6.593470599321143988e-02,-2.059756086277417242e-02,8.047987604013344398e-02,-5.143158184188575954e-02,-3.863121458523282453e-02,-4.801776297180299080e-02,4.848866412646215401e-02,8.031471086901592615e-02,5.094398381389771135e-02,9.267240790910828696e-02,8.272991976495301658e-03,-1.460839048908561116e-02,-1.105121492565430963e-01,-6.334927584912175558e-02,-1.602649968674496953e-02,1.473878553125328450e-01,1.588052659483633611e-01,9.055259675183194301e-02,-7.861200893536872403e-02,-7.383149087629141405e-02,-3.149851053706401172e-02,5.850853976494661129e-02,2.699148565487117374e-02,-4.062046413396550211e-03,-4.823540662366210263e-02,-1.005911096804279065e-01,-8.984341756810172719e-02,-1.317514967582738838e-01,-7.809724371643447446e-03,6.362854458809834302e-02,2.329304985576868825e-02,-3.105352053481472141e-02,-5.510552447312771357e-02,5.775725718037772599e-02,5.480666757846479331e-02,4.498599285508280560e-02
-1.394196313534348475e+00,-1.283393332342542825e+00,-9.728404893680445698e-01,1.867246663542800333e-01,8.255658955019140599e-02,-1.570062302048048641e-01,1.217853918072921149e-01,1.129639043387888758e-01,1.239720689299901313e-01,1.973051587674922724e-01,1.309922176938225769e-01,-7.146094416792836412e-02,-1.593329049119780183e-01,-1.225521447089165522e-01,-5.322910730910290766e-02,-1.044370374916423205e-01,-1.178615753119537646e-01,-4.226722495042175426e-02,2.234023788967943458e-01,3.302872942997479022e-01,1.867796110355535999e-01,-2.252178552805779790e-02,-9.600719486121721269e-02,-7.869235095743377234e-03,-1.419829079105561498e-01,-5.869227660171544292e-02,2.247173165018464397e-02,1.620075063593783005e-01,-1.506073786799662709e-02,-7.186874245106909809e-02,-8.085680812659987518e-03,2.006145046684252031e-01,1.811072221801991178e-01,-4.985152509188548603e-03,-1.753648148397833062e-01,-9.873727578162899698e-02,-1.554264453859522943e-01,-3.361974140159029734e-02,-3.053200547756027353e-02,1.108748452143761970e-01,2.720436300476006611e-02,6.024646562365671212e-03,8.689117025275897022e-02,1.048825816601939021e-01,2.480593011823313890e-02,-2.187282857933545988e-01,-1.850422669359031991e-01,-9.904171971170128153e-02,3.759217121245925219e-02,3.441342021891268671e-02,-2.145084266759922711e-02,7.496455017072524429e-02,6.136628729463546733e-02,4.168955512440239430e-02,1.327349940748182300e-01,5.524028837576350215e-02,5.381381749048237684e-02,-1.818281044911347066e-01,-5.004712039313644750e-02,1.627338655613311952e-02,-5.309784053092816720e-04,-1.017320998929689690e-01,-9.752630736379702681e-02,8.643443545319134946e-02,1.165552641550104129e-01,-3.383751812768465150e-02,-8.554486256702380220e-02,-7.191753062719005718e-02,1.003435785549009612e-01,-6.249666338109406867e-03,2.359203678610626020e-02,-5.897872834269702984e-03,6.069959665358498624e-02,6.358898545935545016e-04,-3.267005515619256922e-02,7.726709960667534072e-02,1.091216178832564582e-01,8.848580746503958983e-02,-2.250716324754272607e-02,-7.896546204530773341e-03,-1.118959198140270957e-02,-8.465128078531998501e-02,-7.906809487319196861e-02,-1.799917561129215846e-02,1.557365401619395517e-02,-6.741767249607362456e-02,-1.338739670100329016e-01,1.732896932079101490e-02,7.572446465126567161e-02,1.138346037301170566e-01
-1.187349464404702015e+00,-1.070192144441269866e+00,-9.404846899966010643e-01,2.769655566598357432e-01,1.689109004867268282e-01,7.436806572628504308e-02,-1.045668224685885606e-01,-9.967737961394751434e-02,-1.167044019406992261e-01,9.075221351283347532e-03,-1.802221093980161878e-02,3.280262275410166612e-04,3.420116697691112650e-02,-2.300479153320527520e-03,-1.203732474880330749e-01,-8.400363707697598714e-02,-5.352585435731280900e-02,3.489147851502563680e-02,1.355385785443449509e-01,8.953154240814760467e-02,1.176551337989897861e-02,-1.815357084067504845e-01,-8.974189820601385925e-02,-1.243097998168459298e-02,7.208867600331010650e-02,8.267863160811945653e-03,-4.186617152049353779e-02,5.272009462263625018e-02,7.770689640860092839e-02,7.912068638976439694e-02,-1.783501989096844195e-02,2.009901343371410520e-02,6.078944891664413847e-02,-6.011682485673565390e-02,-7.777036961566034801e-02,-4.775862560977722771e-02,5.475933736066247726e-02,2.910264509082040318e-02,-4.525249354727986506e-02,1.743966255826059908e-02,1.978361449592866417e-02,6.651148353856628503e-02,5.933580271874861096e-03,-1.702646783753835116e-02,-6.536618680473649245e-02,-7.279939471383872762e-02,-2.973988963100916705e-02,2.074619825528554312e-02,4.310751303107539234e-02,4.670721625278036887e-02,6.580182821273151961e-02,-1.076807068565299383e-02,-1.113794261653112353e-03,-1.240318783224835485e-02,2.545534194981519463e-02,1.804280738428198916e-02,3.857539373228873608e-02,-5.433839655471642272e-02,-6.474763790185367185e-02,-7.575754099341387715e-02,1.661408069888267378e-02,3.231797147448382812e-02,1.649684067587675607e-02,3.592259760090971837e-02,-4.264709041798923905e-04,-1.963214966222272262e-02,9.109904574765752619e-04,2.485659194622446416e-02,2.890182093497467575e-02,-3.823738354526615146e-02,-8.193871718731149389e-03,6.733074012461729915e-03,-2.401331389307558364e-02,-3.775962815627503799e-02,-8.563055573960120723e-03,8.012789529270968047e-02,3.682993784862648168e-02,-3.349808637842239395e-02,3.416507905481056505e-03,-8.053491698564941431e-03,5.326211865244096649e-02,-3.081918191586941955e-02,2.457624533295172178e-03,-1.264048038170476583e-02,-4.947434976178034099e-02,-4.808151278103617310e-02,-2.604832023508861158e-02,5.171646615402203384e-02,5.187515582427171257e-02,2.059562309263199623e-02
-1.181659621030330287e+00,-1.154925605641281106e+00,-1.064477691298632234e+00,3.811978400550438545e-02,1.338584288213534590e-02,-8.981179252148866615e-03,1.324195095048084359e-01,1.305327432715466252e-01,5.868006593562560130e-02,-1.280794819664589357e-01,-1.394642304171458957e-01,-1.473911646252182295e-01,1.200599966148952064e-01,1.304006422191753833e-01,1.466406971898237266e-01,2.657466005749213947e-02,2.408723713336758526e-02,4.657313727085253541e-02,1.959959746752984802e-02,4.812861636033224921e-02,4.818454492002573197e-02,-6.025938614596262899e-02,-1.033335355231587011e-01,-1.490255917436936473e-01,7.070712291380007453e-02,8.437153665613718323e-02,8.180937304181525038e-02,-5.018332423767447870e-02,-6.173791531737083532e-02,-4.095827074694660674e-02,7.645759561166229346e-02,1.178666642883444277e-01,1.089866573438107583e-01,-9.700580449771629976e-02,-1.206551132533317944e-01,-1.085353789549842879e-01,5.296476969782186461e-02,3.051119019291902504e-02,3.409450472758569078e-02,-2.031619733112841747e-02,-9.625197006788224763e-03,-2.925792273673957777e-02,-1.423383063707804770e-02,-9.089408799872739217e-05,1.262952406808776941e-02,2.868766773422917055e-02,4.030781322297129904e-02,2.674373796298374142e-02,-1.028935803136871580e-01,-1.120590296384225831e-01,-5.996520550808411010e-02,1.293515392336896386e-01,9.771442094200914752e-02,4.943229202913083931e-02,2.472236279219764549e-02,4.930336734451034458e-02,3.939183603553306906e-02,-5.437081842829195183e-02,-4.813674449524776855e-02,-4.945665894852648709e-02,-7.518079749185332256e-03,-1.160873970913820462e-02,2.658469705652118445e-02,-3.145892317142990214e-03,-7.821701635679646422e-03,-2.103497545069206442e-02,-3.018481308619622161e-02,-3.382219379989093166e-02,-4.693787702631987274e-02,7.384218884635110336e-02,7.401291366373910496e-02,5.567632362277795399e-02,-5.202196423342948101e-02,-5.841262575946302299e-02,-6.229909844966274868e-02,-3.604245294363845470e-02,-7.903322650393410087e-03,3.737039671208521041e-02,1.966149992102310048e-02,2.137676861292314365e-02,1.321535601522041969e-02,-1.715593825558626995e-02,-4.655314949370109590e-02,-3.196925420194259015e-02,4.904529111477466674e-02,4.352002761401118497e-02,1.919109471998273544e-02,-6.878044147493679421e-03,1.085364104197961491e-02,1.520432984710130310e-02
-1.028741533683428244e+00,-9.950684670006486598e-01,-9.629799138901899980e-01,-1.115048345039953634e-02,-4.237844242525180827e-02,-3.182208951103758510e-02,1.202471583945476374e-01,1.209396609868504946e-01,4.952475083024777264e-02,-2.540954996991884873e-01,-1.976494955029119427e-01,-6.392665981253027596e-02,1.668102733442729801e-01,1.277849152998055404e-01,6.528275247042715501e-02,-8.325000419318753786e-02,-8.033590859190480049e-02,-7.511636426995436933e-02,1.222830713619520449e-01,2.371996597957564887e-02,-5.479357969786372712e-02,-1.124052122751191263e-01,-2.829129818949965500e-02,3.528021839648803719e-04,-2.342525981891421111e-02,-2.389928141099135692e-02,-1.302407692594092711e-02,1.196948437296666001e-01,1.313252462743219051e-01,1.390911210632934103e-01,2.094754800376055076e-02,-3.060217910264867447e-02,-1.185586315936412311e-01,-4.290498858104981744e-02,-2.365220349188926555e-02,4.966493851949906058e-02,4.432273717302820382e-02,4.975867449353242600e-02,-2.395256289782081091e-02,3.786566623584345509e-02,2.290217804320734268e-02,9.470894940586194188e-02,-4.116117942021907394e-02,-2.478465677681220003e-02,-2.977796289610320016e-02,-1.355486873947887583e-01,-5.237965023575839874e-02,5.368559577569768232e-03,-5.348705698951896834e-03,-7.612465277570354405e-02,-1.254818639201401020e-01,9.038550481103192757e-02,6.705212376427636956e-02,5.942159364929882476e-02,1.141334707982576309e-02,9.010586528761996977e-03,-1.984554270650886604e-02,3.203438940950666808e-02,4.688404855198740478e-02,6.093622959450421123e-02,-3.943503261870531882e-04,1.254038391074894197e-02,-1.115048802813177822e-02,-3.127571918095282955e-03,-2.302976793915352885e-02,2.502501080384838400e-03,-3.621792980471567891e-02,-6.380918539582686871e-03,-1.871405775150406653e-02,-2.014095739470430496e-02,-6.096324475322816711e-02,-6.482786748328575599e-02,-6.730019952098727221e-02,-2.302790677657176946e-02,3.084862976220566471e-03,1.326328384169757069e-01,5.729953519292817210e-02,5.086205098883203601e-02,-3.392289516580826447e-02,1.265095588799836947e-02,1.890169503622825958e-02,-5.288216068565451677e-02,-2.952243114600317658e-02,2.570514134370852077e-02,-8.480416601780303709e-03,-2.452247516663307036e-02,-5.337825789354327249e-02,6.200057852591139840e-02,6.086886964305102815e-02,4.204970995093312153e-02
-9.634881209107009070e-01,-8.790406219991988568e-01,-7.919737603240801782e-01,-8.974742638885337132e-02,-1.028469248921705659e-01,-7.463113756203336446e-02,-4.064296933602899731e-02,-1.110708993816334755e-01,-1.434991506310704934e-01,-2.323245684690767796e-02,6.114086989205489570e-04,2.719646707630816659e-02,6.723442177418308130e-02,-1.522561743799071563e-03,-6.174316744828855369e-02,-3.348456002535393078e-02,9.222613305297156644e-03,7.840639723050640136e-03,1.081796259716259617e-01,7.145618122094013480e-02,-5.488024860206190333e-03,-8.459406645677360059e-02,-3.545337816290792393e-02,4.172359133099763466e-03,6.782168286184329931e-02,2.217030213542092038e-03,-4.380789646247893604e-02,1.471230693946316836e-02,2.381621202543150392e-02,5.113894046621386691e-02,-2.414782492085338489e-02,4.408209887642219882e-03,7.210430497499258247e-03,-3.936518466982437403e-02,-1.584484618645132584e-02,-2.804002418442297362e-02,3.624080266303903591e-02,7.583559285174978903e-02,4.498084553691338028e-02,4.134491509874474446e-02,2.241348153969997120e-02,1.257884350297291780e-02,-9.035708036003680874e-03,-3.937954007686307600e-02,-1.281338559820912118e-02,-2.529442274473491653e-02,-1.430608151261332115e-03,1.223148772393745608e-02,-3.224611853982617404e-02,-7.082078974885532008e-02,-6.322867547883032069e-02,7.587808566938880617e-02,1.129263100800521058e-01,1.356650762472953464e-01,-9.501572813134110188e-03,-4.123580858649308900e-02,-4.250310598915928856e-02,-4.498297954333733972e-02,-1.799804285330775617e-03,3.261451545404656614e-03,-3.389789476113051758e-02,-5.810470530195215727e-02,-4.913571261402692458e-02,-1.644825524247878982e-03,-6.413645021871043628e-02,-4.140760599777784656e-02,5.679954871226480795e-02,6.169767276017337765e-02,-4.526222856601828416e-03,3.350767906174548921e-02,4.625795976883171484e-02,2.104838939431578210e-02,-8.289473873294406214e-02,-2.094380664075146115e-02,2.873764873263616113e-02,2.829666482557728971e-02,7.318757223107142523e-03,-1.039698535148283164e-02,1.588174706351046933e-02,1.133000991589309427e-02,-4.772000357353276684e-02,-3.732053968596072552e-02,-2.153376377815462844e-02,3.677644654606662677e-02,-3.244598431149507689e-02,-5.627537619267439228e-02,-9.548754151768014398e-03,6.217209729237300336e-02,7.201660666995149396e-02,3.769609377690652519e-02
-9.734170227520736463e-01,-8.939498257150334526e-01,-7.992735062799735113e-01,-7.083986675134555655e-02,-1.186463470307052570e-01,-1.153531835057701321e-01,-3.960539068922715525e-03,-7.571335271631397801e-02,-1.392137721056233013e-01,-7.085244088697136011e-02,-1.978881924571375753e-02,1.457265473374913002e-02,1.270927131800830834e-01,9.269456892979806295e-02,2.901075365891513450e-02,9.696093434364200236e-03,3.284709740044120668e-02,3.122560182748303215e-02,-2.596580785052230063e-04,8.582559930343621607e-03,-4.998821602181214262e-03,-1.716737910090867791e-01,-1.973373533407657698e-01,-1.550854638682180042e-01,1.203813332532867042e-01,1.064107078306724130e-01,3.582615184524572116e-02,2.220724966776460585e-02,3.103899797228027932e-02,4.567154402706753713e-02,4.400820446011728670e-02,7.530471456289031251e-02,9.067234906909946157e-02,-3.979637450557550055e-02,3.054979580059485021e-03,1.946403881097373209e-02,-1.061901759458788383e-02,-5.852269304468739330e-02,-4.136284255755079409e-02,-2.581521307927921519e-02,-2.684677245821241731e-02,-1.817875443060561896e-02,-3.013207187980375748e-02,-3.836394835444266460e-02,-5.703594700121868144e-02,1.541928250754106416e-02,-1.625118330734711194e-02,-3.836610256085089266e-02,4.677727368707711858e-02,7.625235844295717713e-02,2.954438654056905367e-02,4.535353387974750544e-02,3.975156904803611724e-02,3.586102890942321347e-02,1.435719937663470190e-02,2.207657487961988199e-02,2.967827797119932179e-02,-2.207245635171784306e-02,-1.184652373281659329e-02,5.328965604152272051e-02,-4.878471880751164558e-02,-7.614365336076686641e-02,-9.905258479062849231e-02,6.687280208314587415e-02,3.069393270566602230e-02,1.990680076591445219e-02,-5.160287672448891222e-02,-1.184068348616034230e-02,2.002166521206233743e-02,-4.819451935341312852e-03,4.477363419625920299e-02,4.983525045031455408e-02,-6.575058291227522944e-02,-8.033636720852661839e-02,-9.062350379362209274e-02,5.434684352130980667e-02,7.681061248639325933e-02,9.735888137603278258e-02,3.663852168119009593e-03,-2.987776133551839700e-02,-3.069581864024741383e-02,6.742832731404896363e-02,8.127066253784276384e-02,6.103906930313012652e-02,-1.106412952565911517e-01,-1.006920502341274448e-01,-8.096900968741727045e-02,6.354348685149399656e-02,3.468435361829400043e-02,7.289240492003694512e-03
-1.344191893515006564e+00,-1.247092838962037487e+00,-9.948287457354921814e-01,3.924120822756385629e-01,2.737581247704806708e-01,7.942883690833339727e-02,-2.417237971529556662e-02,-1.769223797585281824e-02,-1.032537123703163029e-01,-7.971100023074104146e-02,-6.918423966988013207e-02,-3.029833660684010804e-02,7.546846057498418636e-02,8.104280981526394700e-02,9.531424266248098021e-02,-6.792754311968174363e-02,-6.651116177494345583e-02,-5.370017257886834650e-02,1.234618726513256326e-01,1.420001704466969661e-01,7.238201300487588641e-02,-1.963321049947097385e-01,-2.031383425192155034e-01,-1.331842833228749912e-01,1.767157168882096951e-01,9.217442638467879257e-02,-4.715081097915518882e-03,-5.483535126343649403e-03,1.276604288705519563e-01,2.096804773755664708e-01,-7.624853427370723025e-02,-1.651633522272782928e-01,-1.622856004597202362e-01,8.053248742980229080e-02,1.114549310643678653e-01,9.135592099504574737e-02,-9.214283502391526492e-02,-7.610993217017321399e-02,-4.708607753785226668e-02,2.816849278623911185e-02,1.240418034791029335e-02,-9.830975884117035268e-03,6.341977644030423467e-02,6.391258466230020918e-02,4.584119011846563702e-02,-1.025547654945266896e-01,-1.622838278634372022e-01,-1.964571690344147914e-01,-2.444905238720922538e-02,7.019665402824898370e-02,1.405424592848986687e-01,1.293681657842471189e-01,8.157976905844075907e-03,-1.087022683883407531e-01,-6.805253757121736136e-02,4.465712421418269878e-02,1.203022289523113242e-01,-4.980514496404726821e-02,-7.163784254568419940e-02,-2.125398804071809353e-02,7.587232543183494021e-03,2.817220668893197916e-02,-1.652446752271751092e-03,3.027710421423518428e-02,1.015680910991949987e-02,1.561399623709668755e-02,4.718962698551890100e-02,-2.388402944783945062e-03,-3.035696880496370487e-02,-8.256336201346907433e-02,-4.797617106923966757e-02,1.099060671045306095e-02,-3.570884193522751160e-02,-4.615306024854241851e-02,-1.125178627409245125e-01,1.721778231079440502e-01,1.498125417310856855e-01,7.277021109629322471e-02,-1.153187749212555430e-01,-8.182009570160941880e-02,4.242280596243773461e-02,5.912108164946770772e-02,3.011842892005404948e-02,-9.859456282476061761e-02,-1.748286807973972179e-01,-6.608762282425004186e-02,7.454961179665053894e-02,1.538129009873837605e-01,7.773410576725799104e-02,3.762086723598507404e-02
-1.184031624127999782e+00,-1.161775579656088464e+00,-9.909076675909883614e-01,1.392599075638057682e-01,1.374562463994533357e-01,2.023034074523587592e-02,9.065656141852909689e-03,7.372484512704469140e-02,1.042058125029089594e-01,2.076727926472555358e-02,-1.116382809635268480e-01,-1.897072330733670376e-01,2.006805502025533344e-02,5.738136748051584496e-02,6.172396415338068931e-02,-1.755251707914771975e-02,8.007440450100749207e-04,1.426814063570070639e-03,-1.928182164418498767e-02,-4.677080592746298698e-02,-3.827535714921084103e-02,1.735819186156361583e-03,1.542087093196330139e-02,-1.997891321788135277e-02,-2.742156409128548855e-02,-3.341573050567105130e-02,-7.205215429663816736e-03,5.833224811507346785e-02,4.713129087095090791e-02,7.537951162448521848e-03,1.205306670114036569e-02,5.989038193515978242e-02,8.036157597469076319e-02,-3.329714105958307691e-02,-3.937784872172872541e-02,1.302883616657725743e-02,8.335672761039944478e-02,2.366390043184983527e-02,-1.027090020221652217e-01,-1.003485200507947712e-02,-4.449283792848707925e-02,-2.931272930514046068e-02,-5.179023733726269979e-02,5.017674519224239044e-02,1.104837964701309017e-01,-5.233181877304220186e-02,-3.264013666305094069e-02,4.024831491182359958e-03,7.853084518618821258e-03,-3.586192061413111948e-02,-5.629825001720890898e-02,4.966661380518430646e-02,5.064866175610487423e-03,-1.072772255573396956e-02,-5.422696685057127458e-02,3.987671562436329725e-02,6.487933485775294884e-02,9.353793761376983165e-03,-5.792809817621413088e-02,-4.112555880693537225e-02,1.746173186939210115e-02,2.722122913369864547e-02,8.934855660377280864e-03,-2.098413214758765299e-02,-2.673691103218677964e-02,3.487045704415906930e-03,3.654937478774596127e-02,8.229831057724162902e-02,4.907485678947167557e-02,3.583261327433809318e-02,-4.468366686375148389e-02,-8.056881141758312492e-02,-1.079214442066333546e-01,-2.381985684613979054e-02,2.102988004931873045e-02,3.896261982404413543e-02,4.539862320545209884e-02,2.541922858792448198e-02,4.860359931447799653e-02,-2.554158317294766972e-02,-1.969875388780693848e-02,-5.234137487756159932e-03,-2.160927812636117412e-02,-4.834311544273368205e-02,-6.489829076461260671e-02,3.057693163925419982e-02,7.291788764884003793e-02,6.032050213519468684e-02,1.039699956006291497e-02,-1.381364924142193182e-02
-8.697397490647755802e-01,-8.092623277765105261e-01,-7.395357724223392548e-01,-1.267382366213273270e-01,-1.083276575159643068e-01,-8.452374637400375534e-02,1.714589550944872753e-02,-4.444778510053900428e-02,-8.605287025036705006e-02,-1.414492299491311444e-01,-1.152048193843854124e-01,-7.677078556400265819e-02,4.070956106640968852e-02,3.869461520282174369e-03,-1.804407183003751969e-02,2.153893905926042643e-02,2.133260071691521834e-02,7.423362549940416312e-03,1.018762234116326638e-02,4.321297103521998251e-02,8.904444842808750815e-02,-1.158649958996313123e-01,-1.914659319184006947e-01,-2.589445240716216623e-01,1.197888128048955891e-01,1.114585729339189618e-01,1.000420985124174517e-01,7.566893705946903248e-02,6.992535760467991079e-02,4.941752729154298565e-04,2.383220607834841617e-02,3.952982909416399848e-02,7.939637942208925547e-02,-4.803792917124349166e-02,-4.348779797304053174e-02,-6.079578374825076598e-02,-1.470446425128403567e-02,7.806695086412194021e-03,1.334830484419601004e-02,4.749720569582509960e-02,-5.994231174593027574e-03,-4.932754886828983470e-02,-1.954193456652511540e-02,4.463210157973821618e-02,3.090015412677865267e-02,-2.672513486787805436e-03,2.803097771978236598e-03,1.472815452644941209e-02,-1.147035150142974302e-01,-9.719619001639048794e-02,-8.697764385368382534e-02,6.965467091793267618e-02,1.087051645478217948e-01,1.392664101724358505e-01,4.209947955753769872e-02,-3.120982322283290950e-02,-6.284609491718082253e-02,-1.024651151370432195e-02,-1.880487663658246111e-03,1.466814249866056803e-02,-1.761905859593363224e-02,-3.235631683261384894e-02,-1.465104348807037653e-02,-5.079064165028956968e-03,-2.231041750971932136e-02,-1.921797200820110629e-02,2.968172299069407258e-02,2.321756394577470170e-02,4.021925789179762317e-02,-3.958669534584054878e-02,-3.100162592564362218e-02,-4.860617936336174283e-02,-2.619199736385850047e-02,-7.972981307390525005e-03,4.024571546741585737e-02,1.016417149482684162e-01,6.346663562466629827e-02,-3.562864784004360352e-02,-6.013042729618058154e-04,3.702322130470736550e-02,8.797965295896176263e-02,-3.643228838783869189e-02,-7.456549269202647490e-02,-9.044952458313498811e-02,-1.629592785860455029e-02,-1.035993447258008390e-02,9.981361626118956387e-03,6.145166388055777265e-03,5.016350762349207348e-02,6.477522373443440895e-02
-9.938500214187496740e-01,-9.633899723997640940e-01,-8.262887506548421968e-01,3.632190188904172671e-03,-2.716918614035924127e-03,-7.717438605848385424e-02,-3.587429691416193361e-02,4.418483567129769321e-03,1.298502371868909266e-02,3.969615173256528518e-02,-1.547323659970559900e-02,-9.999367667801798559e-03,-3.593110512214360824e-03,-2.369520827993029308e-02,-8.853122107919356165e-02,-1.617331042371054559e-02,-1.340254382251626804e-02,2.765928111753690119e-02,2.385620280297748308e-02,1.353044171937470633e-03,-6.896391484648480008e-02,-7.245992649557007892e-02,5.425020758914787800e-03,3.365158753244400225e-02,5.197591056808330279e-02,-2.135615924403494112e-02,-4.429268636747364651e-02,-1.232090694531283795e-02,-9.608739606213806189e-04,2.769421673994616057e-02,7.836683269623537229e-02,1.197158132849440726e-01,8.620733902415071703e-02,-6.832973411182038936e-02,-7.217863346058389640e-02,-4.060687896682939335e-02,-1.092621315576024037e-02,-5.425098618245478149e-02,-4.665031706681029011e-02,5.002027949549973842e-04,5.645268623936432195e-02,4.612962042022746012e-02,1.448834406817331964e-02,-3.284645678566767979e-02,-3.540017026397113825e-02,-1.473905841999054687e-02,-3.471598177644239641e-02,-5.596660872539266363e-02,-2.705078291765638382e-02,6.684002566363892936e-03,-2.886162651693591728e-03,1.246257197767482519e-02,-9.810583199932169235e-03,1.111912330973123357e-02,1.343348817353568793e-02,2.844917573959427487e-02,5.085549003160317466e-03,-3.477276463966244829e-03,-1.802120830586296032e-02,6.541350424615405799e-03,-1.334973271662145099e-02,-1.076977477767109004e-02,-1.009680032040745704e-03,1.677728364310474354e-02,1.589676580959847527e-02,-2.987328962805770732e-02,1.141716374735614586e-03,2.943653591948381526e-02,8.152265868806427007e-02,6.339442856064850251e-02,1.572882949507899836e-02,-2.559707805927939617e-02,-8.120701272823806216e-02,-5.799988545942391660e-02,-2.531358352391244182e-02,3.578065769728242668e-02,8.266209740926647176e-02,7.660157756773215698e-02,-4.359687901135530369e-02,-9.245925153758755011e-02,-6.371487512610089776e-02,7.092932004544900970e-02,8.497552322085599741e-02,5.757829136813977233e-02,-6.283629715469973842e-02,-7.422313117647176550e-02,-5.498307360512684483e-02,3.343434435495100387e-02,4.715714061466286938e-02,2.454639788181732507e-02
-1.141290596878717256e+00,-1.060682506482238274e+00,-8.641687135185106561e-01,6.872601910695635974e-02,-2.457927597825017990e-02,-1.380054670924729665e-01,2.004476122829983512e-02,5.380583691436424676e-02,-7.023077500138134865e-03,1.508139621663466025e-02,5.004713975105755733e-03,1.392107304217448695e-02,-3.889589274879579756e-02,-7.790023192700451515e-02,-8.905580123846897067e-02,8.863608618655634264e-02,1.530506158633647140e-01,1.634534181935392572e-01,7.053933313143317951e-02,-1.988887718456661818e-02,-1.155358456502340730e-01,-1.852755382658289873e-01,-1.621068902290446478e-01,-4.965459605934161719e-02,1.326563959867987086e-01,1.717063508118858162e-01,5.405207612175071119e-02,-3.110341502314561274e-02,-8.195972009829190219e-02,-3.399023540993659914e-02,-6.711599097436912742e-02,-2.325080385423019397e-02,-1.633733022636256471e-02,1.416421833381848600e-02,6.835875203608106354e-02,1.598413561616887357e-01,3.720332968220764480e-02,-1.901104416361429350e-02,-1.180593866602910880e-01,1.907121432297694333e-02,1.926827121809832413e-02,7.942023035184718471e-02,1.386110445434088866e-02,3.593974784473732975e-02,-1.630482315469105464e-02,-2.638667812167188112e-02,-4.276424453771392881e-02,-5.854688914953456308e-02,-7.890816060582063474e-02,-9.506491626226089287e-02,-4.106990415566897507e-02,1.355362933022327687e-01,1.247616190992914265e-01,4.002357018742776912e-02,-3.231267358458291689e-02,-3.763341461752874734e-02,-3.402830827752650195e-02,-1.483986698359032047e-02,-2.616642398733096640e-03,4.747865603169865167e-02,3.844668326196038800e-03,2.559935381286112394e-02,3.707311640511888780e-03,-1.183836382750422800e-01,-1.278117317915714868e-01,-9.523713930716366793e-02,5.675709991526191323e-02,5.223232639685949225e-02,6.495788657094841989e-02,3.018827606672827568e-02,3.512353616175707682e-02,2.310316030321665423e-02,4.669658702576712228e-02,2.605142982509088892e-02,1.634107734921456945e-02,-2.819686861410735344e-03,4.779708987405053427e-02,1.089238907527088074e-01,-1.274809662356403070e-02,-4.589398263474180582e-03,-2.644796936088218350e-02,5.601773109655351635e-02,-3.825850162800200401e-04,-3.845865543862292402e-02,-1.058558671496188236e-02,3.624820193776055050e-02,4.507241312621790286e-02,-4.808160931489589146e-02,-7.447978916552111528e-02,-7.823272249801156708e-02
