-1.632174147924071672e+00,-1.586075363487126300e+00,-1.412696612526317175e+00,7.034873032049115960e-01,6.473013256542692329e-01,4.631382871336361395e-01,-1.373047629798221092e-01,-1.642143369955056664e-01,-2.200333888666384796e-01,7.890833059974178276e-03,4.727773702864577349e-02,1.441967917582120950e-01,7.311444290807954383e-02,7.155479941191342230e-02,2.063718565065494198e-02,1.085882217361750380e-03,3.096566836518466551e-02,1.044949105122963406e-01,2.130907506903310239e-02,-5.010200249883013657e-02,-1.890641840563242748e-01,-7.081680563980695398e-02,-2.223128001395114489e-02,6.665029288552716535e-02,8.921867085432903799e-02,9.467330413611879658e-02,8.850311345596097168e-02,-1.286370356974227414e-01,-1.944647699452129730e-01,-1.954531329856944721e-01,-1.725848398160610003e-02,8.859694339270506036e-02,1.970572708614330981e-01,2.902164243308523461e-02,-3.388569533864586175e-02,-1.719763928205679249e-01,1.638278614178922676e-01,1.610880861616339754e-01,1.425593470071453706e-01,-2.483877051187039289e-02,-4.645530142463914769e-02,-1.088128539529970851e-01,-1.019040117089909381e-01,-3.007370308324083114e-02,1.648761200352993339e-01,2.432533720109658626e-02,-1.366001500616752240e-02,-9.390351421246923014e-02
-1.684673925509571957e+00,-1.675823085147361002e+00,-1.458221768313198163e+00,7.854875236871337041e-01,7.422488313985248221e-01,4.366913946855740525e-01,-1.676636055477409570e-01,-1.393449420064971911e-01,-4.722294232110459122e-02,-1.136110775300565173e-01,-9.149743689170396210e-02,-1.295795126523762060e-02,3.419657778636949197e-01,2.918255036580189588e-01,5.310185579751221935e-02,-7.575449372127159020e-02,-4.462756802749192654e-03,6.315849918536782515e-02,-7.544617076001361444e-02,-1.399745770582734583e-01,-1.580861051834498571e-02,-2.017111005850552030e-01,-1.617073818784008910e-01,-9.826530875555472555e-02,1.708431898213610689e-01,1.456329659150191469e-01,4.255072660684367652e-02,6.199616989159312253e-02,1.051216482852596057e-01,1.336899133991894528e-01,1.108089001655701566e-02,-4.203443723329662596e-02,-1.348824347864608919e-01,-4.284561353619496804e-02,-2.319012866666424894e-02,2.813828757905580472e-02,5.069875663353149570e-02,6.846444652175791290e-02,1.419680793794964209e-02,-9.483638813493200370e-02,-1.198432022937229169e-01,8.271762420468548038e-02,-7.354781199048990303e-03,-4.808548396150177928e-03,-1.829354036156991825e-01,4.211954913317711435e-02,4.963538970027079472e-02,9.623030371904053859e-02
-1.499280629846916790e+00,-1.522412085710721952e+00,-1.377411207321752817e+00,5.796426599390341883e-01,5.943593608958436247e-01,3.385911151156171250e-01,-9.873353642418904175e-02,-7.404687682946879679e-02,1.094875813038852924e-01,-8.022986863512447664e-02,-1.032868105864265112e-01,-1.594319631629952660e-01,1.127095689662881289e-01,1.347942355528565228e-01,1.134226802982390286e-01,-2.644399344198379923e-02,-4.873364310307869152e-02,-3.950369646687239972e-02,1.999297744284839543e-02,5.366604752870282602e-02,5.158056366026399220e-02,-1.672877571979392297e-01,-1.845958065927416347e-01,-1.341203613765748481e-01,1.748475948756938181e-01,1.604863868083190037e-01,4.637675946043694208e-02,1.017400405170837928e-02,3.498346919766073815e-02,9.981575710140601354e-02,1.522073633513119917e-02,-4.926935433681925436e-02,-7.383279970338224585e-02,-1.336097434261258043e-01,-9.360200669510879146e-02,-3.823609510999340794e-02,4.018940408377467272e-02,9.196433608392555470e-02,6.588481132466675327e-02,9.619277735091832926e-02,2.789250234994768846e-02,-7.464121188965739534e-03,-8.328948324736928921e-02,-3.621357941858387164e-02,2.333433972752184567e-03,4.020983814739526735e-02,1.421295866320019217e-02,2.619094277692523686e-03
-1.401038463233600595e+00,-1.378770847418058443e+00,-1.266703413641740106e+00,3.790080865721038306e-01,3.432874659515335325e-01,2.510059956485216626e-01,-5.504985468589215780e-02,-5.492112533592018175e-02,-1.127949919447917074e-02,7.560338422369305977e-02,6.790667598200565702e-02,-8.321362056348895198e-02,-4.257954873311691618e-02,-2.721381652864673928e-02,6.862547201701613142e-02,8.563297488595320028e-02,8.586869205612861211e-02,1.987966200683742232e-02,-3.615936999419615966e-02,-2.111686405539721020e-02,-1.618245730702775817e-02,-1.061357281934971614e-01,-1.565065715620824471e-01,-1.215107421145691924e-01,1.626281886749664785e-01,1.993794228314123562e-01,9.977423530172284394e-02,-5.285879104814748819e-02,-4.093965246452145601e-02,6.750586257020758929e-02,1.379604119838884028e-02,3.773603232172739741e-02,8.617321204605615792e-02,-1.126181527412870031e-01,-1.688407959672944547e-01,-1.672563401556653728e-01,3.378797181152970452e-02,5.897199549166248084e-02,4.268803631720907710e-02,4.791585299567539119e-02,6.819395512107641333e-02,9.379849440563045593e-02,7.702328097804747586e-02,4.128361764513555077e-02,-6.477895567008737365e-02,-6.869958974445028455e-02,-5.414641304270589872e-02,1.568390663303366244e-03
-1.278299500201590222e+00,-1.274282029215991985e+00,-1.201843621270213047e+00,1.805611295193312316e-01,1.801897822511465685e-01,1.804798246802521156e-01,8.039164627534646501e-02,-1.113242082067377250e-02,-1.287388238569992516e-01,-9.369267092280310349e-02,3.647062081624136143e-02,5.865181483074249913e-02,7.235655484194115916e-02,3.683300379623358212e-02,6.089214229998390904e-02,3.128324710742116238e-02,4.132913986263180017e-02,6.470339697731489204e-02,3.550398593513778150e-02,2.090847096839894628e-02,-2.913573105533509219e-02,-1.237369764896660562e-01,-1.387764529515753964e-01,-1.153014483999222073e-01,6.831806722863904835e-02,8.004821316440625945e-02,7.165514135385898931e-02,6.180995422663275451e-02,3.684716038762100854e-02,1.224946566097289379e-02,2.185997674150103737e-02,2.345151991975492553e-02,4.887273398999270047e-02,-1.411501581403230010e-01,-8.140384647720740052e-02,-5.273020641343156151e-02,6.110715802424280391e-02,2.769095077608909466e-02,3.679679368484634235e-03,5.417454296973845534e-02,7.149859399587929487e-02,9.164807243831225858e-02,-2.164485984759156184e-02,-4.162855789624209102e-02,-5.858580330828432742e-02,-8.613110112729827419e-03,-7.855757171848309559e-03,-6.381110329513178629e-03
-1.139165328382100828e+00,-1.095735369664584402e+00,-1.015078222200782587e+00,3.796201273360133577e-02,5.041438260319467020e-03,-4.583443188467078988e-02,1.078094180539004299e-01,7.915455707168900235e-02,4.185171120969095188e-02,-1.524902903238811724e-01,-1.145876154209697212e-01,-6.715560411484738923e-02,1.799089178020984447e-01,1.894938886627030306e-01,1.797020057354826728e-01,8.112283130032046929e-02,2.341833828915340990e-02,-5.041290010180599773e-02,-1.054853019095192551e-01,-4.310371378767425404e-02,2.044863638742488304e-02,-1.164255812759326381e-01,-1.669895966664927955e-01,-2.044442570156728700e-01,1.593289390984045095e-01,1.510850237587237355e-01,1.104007616268322112e-01,-3.016509837458651588e-02,-1.872042181611704298e-02,1.182591861781718059e-02,-1.180360143544160606e-01,-7.522409564022033979e-02,1.515944364087286333e-03,4.961236440843254381e-02,3.125221343917985312e-03,-3.529487333846597491e-02,-8.763506037370476232e-02,-5.681552167642797690e-02,-3.168724108040969767e-02,1.526555752284206591e-01,1.424665084433830997e-01,7.879281384676370403e-02,-4.983517604698160797e-02,-1.030226882382130893e-01,-1.251714617890603842e-01,3.115009511437876952e-02,8.066652906426852176e-02,1.307217239688936439e-01
-1.106217149858854665e+00,-1.101283495428559300e+00,-1.025366540483801936e+00,1.044074929244992317e-01,1.045424724124116023e-01,8.543445704710278532e-02,3.819290484540879133e-02,4.955732020005094995e-02,7.677733726131053676e-03,-7.141015505604834945e-02,-9.698047795857486775e-02,-5.551823711270841705e-02,2.666611738906358303e-02,4.026924012781952361e-02,6.245946877465625817e-03,3.521516257603918981e-02,2.086257414686640971e-02,-3.337221966545584045e-03,-6.800262183640183589e-02,-5.748583996692148423e-02,-5.547840245499208699e-03,7.231664625814987479e-02,5.073962896336615958e-02,-3.819774980158185951e-02,-6.300376309561614430e-02,-5.781592889179775624e-02,-1.277989606020422421e-02,8.817465259234849584e-02,1.062065047125866635e-01,9.528510259408640160e-02,-3.122668972973203713e-02,-3.040134461497460625e-02,-1.754187079137472377e-02,-5.765760986031180646e-02,-6.760147231738762585e-02,-8.281696261210606813e-02,8.598360875474933204e-03,2.877274972151711366e-02,4.770452762156382476e-02,7.181382568810197597e-02,6.564154718369619168e-02,4.195235861207427530e-02,-8.762483937006182444e-02,-9.825975676059672814e-02,-8.131894413144526157e-02,3.995137970630743135e-02,4.340439703055446602e-02,3.823516242984811853e-02
-1.203373293460858084e+00,-1.234424630258748268e+00,-1.220073978423422689e+00,1.578102159981168984e-01,2.610128815426433491e-01,3.202985563008332592e-01,2.010889912420031067e-01,1.218086417888720741e-01,3.828797524257563506e-02,-3.729067722818589226e-01,-4.079681270143065142e-01,-3.188646104475257870e-01,2.780022749753544020e-01,3.590155304498101052e-01,2.234368255586702823e-01,3.466986015693027112e-02,1.633244596840489633e-03,1.282878634540429164e-01,-1.389599240947869407e-01,-1.815697425460856829e-01,-2.566637766921771591e-01,1.510503321035052415e-01,2.080905590197864308e-01,1.223943749567515255e-01,-1.802094791456647915e-01,-2.284689995667646689e-01,-8.416948838654481069e-02,-6.671138672848303530e-02,-9.288839745867680242e-02,-2.097805224887840936e-01,1.101152603468842778e-01,2.202208729618473637e-01,3.231507715878690346e-01,4.082822132413893579e-02,-5.053868504533953754e-02,-9.057946394175042659e-02,2.163831149957553754e-02,5.730801333109707130e-02,6.490728798098448216e-02,-5.753167211554402471e-02,-5.180052816657213649e-02,-8.751502055226757781e-02,1.282544097757994106e-01,7.466169345940124047e-02,7.344388607125060253e-02,-1.035368111298318738e-01,-5.587010920993967095e-02,-2.643684288019818376e-02
-1.078383067326410094e+00,-1.055271888461891683e+00,-1.001244437720441915e+00,4.404873802615898171e-02,2.502265746017752826e-03,-3.677893443987156896e-02,4.900258971003676467e-02,1.454774028831311294e-02,-2.461374219378470798e-02,-6.016517378178866393e-02,8.568035048987183988e-03,7.721425169443968395e-02,1.476415571429394967e-02,-5.035972969316729851e-03,-2.762817534862204230e-02,3.974734701893402333e-02,3.532819443842399182e-02,-1.415237110873779694e-02,9.347369331823457417e-02,9.359476938783618805e-02,7.069999645326149884e-02,-1.917235594078173511e-01,-1.607913305286603756e-01,-8.310213423986988202e-02,4.478848631544023184e-02,6.387813352324535343e-02,4.008228451194267850e-02,1.497406178705652791e-01,9.318412786596466657e-02,3.353208198777123811e-02,-7.958212205607294309e-02,-7.894460917128127975e-02,-4.823973943867056191e-02,-3.972297065512731679e-02,-2.078719934161208163e-02,2.839185286640006581e-03,-1.384902046014897629e-02,-6.199740146712386622e-03,3.026540384005848780e-02,8.561290678040429925e-02,8.577295066278856073e-02,3.226792205397102653e-02,-1.996910129236592613e-02,-3.522935937225130099e-02,-1.964683093664477964e-02,-3.770649743698124834e-02,-3.505137981714914752e-02,-3.144470629648322968e-02
-1.196777478373680870e+00,-1.143991476928659434e+00,-1.024943595589682621e+00,1.772599636086990282e-01,1.185673326837501651e-01,5.448023434698775341e-02,6.151524718447441004e-02,4.148598891557555429e-02,-4.102635594417910342e-02,-7.931147121789171306e-02,-3.240492306571741282e-02,3.528325889069293137e-03,6.597117107489967880e-02,2.531079468962304721e-02,3.501835165895858266e-03,-4.329588800603061810e-03,-3.195155502756135638e-03,-1.891814187136270364e-02,-1.914430759440162791e-02,1.105508307813119970e-02,3.807050084327900236e-02,-8.956424084263514551e-02,-7.211030416035274504e-02,-6.584744935659632425e-02,6.526805520075550093e-02,2.650617278395028809e-02,1.484991985067383134e-02,1.132039996174504515e-01,9.437938332598194702e-02,5.121214957950710051e-02,-6.270088528662998151e-02,-3.840936749095114067e-02,-3.315574077450983426e-02,-5.526240998000735150e-02,-5.767441082335689195e-02,-4.168738637561087562e-02,3.430037746622668568e-03,1.927939506716871629e-02,3.858334191143034109e-02,4.561430527494513693e-02,8.195129241848970320e-03,-7.621215479151338158e-03,2.673675650144134025e-02,4.212096928370016868e-02,3.064721182149880360e-02,-5.183207640709047020e-02,-3.905354369907268475e-02,-1.619759528860037273e-03
-1.043985490068646049e+00,-9.547160385525522708e-01,-8.602716608570480927e-01,3.144382523064345042e-02,-4.564572654945703994e-02,-7.969885074652352519e-02,8.746108945493041853e-02,1.127038135776397137e-01,9.669567438291998274e-02,-1.481760555622442244e-01,-1.990112170136106862e-01,-1.827198550490390094e-01,1.171850610601355425e-01,7.915707463244059383e-02,-1.206499891316652369e-02,-4.478679390812647515e-02,-4.346911195936320471e-02,-6.484607505670531014e-02,-4.408223376918977282e-02,3.065015040562411863e-02,7.530205343008861130e-02,-2.966292218538576012e-02,-3.364799739272526791e-02,-2.405441151332496710e-02,2.531124137831506846e-02,-9.415384793290562312e-03,-3.539290363510236292e-02,2.524052945931069825e-02,5.247224348514067244e-02,6.279259488528321498e-02,1.015800643488908202e-02,1.744989052502684233e-03,2.083866949691283790e-02,-3.068734920360998916e-02,-7.917290509394016990e-04,1.401897351537167470e-02,-1.246039727755368642e-02,-3.200769214621466963e-02,-5.431495032852727556e-02,5.175490155499543748e-02,7.112823534127552839e-03,4.807912376940349716e-03,-9.556654597774784030e-03,1.386491893890922505e-02,5.072050439042841141e-02,1.497448499159753296e-02,2.109984416580312772e-02,-1.174481530907672995e-02
-1.274230673706470585e+00,-1.223900281462521278e+00,-1.104702385798983721e+00,3.177174485351871303e-01,2.164079948460150560e-01,4.385374573643049945e-02,-4.314501019485009886e-02,8.527581987020627780e-03,6.171604426981466829e-02,-1.597634181784703122e-02,-1.898404283396766534e-02,-9.161633653290882084e-03,5.786050448859839102e-02,4.208060006596000407e-02,7.771547852944060610e-04,-1.380139725192749134e-01,-1.282635965865045469e-01,-7.589305803164848874e-02,9.885348728152430764e-02,7.516520873726893759e-02,3.286074847162869655e-02,-9.995260467990464692e-02,-5.105518514294886401e-02,-2.848028562906527658e-02,1.242615420384156344e-01,9.641562015029093990e-02,8.977495913997086963e-02,-1.492243988456257164e-02,-2.538751557177616747e-02,-4.110249229539498367e-02,7.397278998297120503e-03,3.562832070236224974e-02,4.394513343371170971e-02,-3.404399131133925560e-02,-2.930076612063992753e-02,-1.647815198241480567e-02,-2.821725363189313881e-03,8.937131933405697420e-03,3.797429878097187406e-02,-2.486546021214764562e-02,-5.157586793354285853e-02,-5.591425295375963833e-02,-1.323444882773897047e-02,-3.871398891858134073e-03,-1.820348201295347856e-02,5.525766262164258369e-02,4.928899618543015893e-02,3.909767430136545929e-02
-1.169923594535383415e+00,-1.099852973537386314e+00,-9.516229252838589447e-01,1.432013340798091172e-01,5.824805712945924779e-02,-2.718266873234866099e-02,5.746129196356268565e-02,5.537069282070769538e-02,1.017639107140744237e-02,-1.187288088340283099e-01,-9.432532809586668954e-02,-8.699680889929693739e-02,1.170740714443375963e-01,1.141473466492074068e-01,8.003761342177397042e-02,-1.508351076465310955e-02,-4.872167071736265009e-02,-9.325303703410109391e-02,5.852141594409513564e-02,6.298169676861405109e-02,1.625873014233358838e-02,-1.854574078305757379e-01,-1.827385721439102884e-01,-6.289653729209422617e-02,1.352947147389657045e-01,1.355310161662611756e-01,1.071274171432084477e-01,3.080953009849766652e-02,3.695416946073849102e-02,-5.789846264705029999e-03,-6.353207608360214587e-02,-6.333749291362915368e-02,-1.761623751851346467e-02,-3.866122809838689472e-02,5.180470085047215317e-03,2.919032697833499543e-02,-1.927321942947770456e-02,-4.517919941804164619e-02,-2.820733621598927460e-02,1.416884827586511741e-01,1.208873703991966281e-01,6.080340898507245045e-02,-5.003908835453983739e-02,-2.137208283560459998e-02,-5.420860612963963876e-03,-2.327318419723405779e-02,-3.370475470503962040e-02,-2.454456957389118676e-02
-1.151910775528486086e+00,-1.066463168701145436e+00,-9.150090662484431370e-01,1.123383827956131037e-01,6.334926243593104467e-02,9.843091313103957685e-03,9.883512171797426138e-02,3.047952985066878021e-02,-6.869646667616229052e-02,-6.567011865576265206e-02,-3.570930062614238037e-02,-2.703273932564271426e-02,-2.180526805560152950e-02,-5.974241221583598618e-03,8.787696414202527534e-03,2.865213808253973954e-02,1.235085923167873398e-02,-1.472604769423976195e-02,-5.019080489728996314e-02,-6.752013503179155052e-02,-3.936516989682001949e-02,-6.095555444299600306e-02,-5.170755447902865981e-02,-6.589864233077441513e-02,4.173995734343984715e-02,2.660140922366269894e-02,1.895951002516101450e-02,6.925879985261743088e-02,5.759913764501355810e-02,1.670949781549490795e-02,-2.629795978550792529e-02,-2.500674001713358227e-02,9.888597983530931015e-03,-1.830580195914197419e-02,5.189444003416892465e-02,8.197911580312587654e-02,-2.518712485703947321e-03,-2.069167671723113125e-02,1.772319213233491259e-03,1.035599539043450673e-01,3.776719744681363011e-02,-4.974101515632747827e-02,-3.668017373412840731e-02,3.477146002578775097e-02,7.218389684443438092e-02,-1.991880886859641320e-02,-4.163009777580787413e-02,-3.958183456216576163e-02
-1.213655448675416970e+00,-1.152797424267101523e+00,-1.057711307876766593e+00,1.994187784687653231e-01,1.227174157192681969e-01,6.847749964366538211e-02,3.951588531243793723e-02,2.623329934514545200e-02,-1.436651691269956801e-02,-1.468300262075174223e-01,-7.001150158868678364e-02,-2.844527833651314466e-02,1.632179620724629743e-01,6.635438468574218762e-02,-1.423301413643997954e-02,-1.312484085148472868e-01,-8.087021033203638243e-02,-1.904555973513618466e-02,1.006181568707876783e-01,1.089788888959651418e-02,-5.187601096905702230e-02,-9.260899860586713217e-02,1.775152783661059289e-02,4.532514194241542282e-02,-6.265598598474277775e-03,6.414362532591629494e-03,1.254296848950485141e-02,3.912511974382416186e-02,-2.447214533743292952e-02,-6.013547075509061840e-03,6.751164059061981471e-02,6.586911251946821200e-02,2.572977203408722061e-02,-9.978522565205495687e-02,-3.681862257191213100e-02,-1.168317192191022612e-02,2.340907432356156836e-02,5.456424465075539187e-02,1.245198286464414966e-01,1.106146750184469896e-01,-3.202902246808224558e-03,-7.978126488169187680e-02,-3.876960089723074931e-03,6.055349840523018001e-02,4.844094582156305284e-02,-4.900904038306975324e-02,-6.305043241663113585e-02,-4.177893931073892869e-02
-1.241546142046708656e+00,-1.122413548506591585e+00,-9.512678418968147920e-01,1.941121598659850678e-01,7.981876592013825711e-02,-1.641408270365781949e-02,1.034439520113219491e-01,5.779715402670102670e-02,-2.574058482793752795e-02,-8.366303046992283610e-02,-3.163748925290543051e-02,-1.360076797834910110e-02,9.005207600682552105e-02,8.664468807843325737e-02,4.165100907771931288e-02,-1.407031567124951699e-01,-1.312091469910522668e-01,-7.287887277679182263e-02,4.154515717241433204e-02,8.010144394026721265e-03,5.509886483294861893e-03,-3.200816824420876089e-02,-5.214686304622360817e-03,-3.647222138121815511e-03,5.140494802804243535e-02,2.151742211228768395e-02,2.917270980266835172e-03,1.964407475611855067e-02,1.642729320276333643e-02,-1.314803157221896418e-02,8.173265895419239147e-02,6.414165129484998562e-02,8.472536939961125557e-03,-1.573057437423780458e-01,-6.936333621016214923e-02,4.149738578569432679e-02,1.140026138010996337e-01,6.606572830713806910e-02,5.863791467177355970e-03,2.093325551401348933e-02,-8.055679724517886275e-03,-7.429168779862411510e-03,-7.359533346164409684e-02,-6.859707708317727692e-02,-5.874809777379465942e-02,1.204427982782365660e-02,3.614453915368931458e-02,5.702552091537524404e-02
-1.325362732182472802e+00,-1.311203604576663517e+00,-1.152990292039411058e+00,3.454597242146672520e-01,3.228312864269348714e-01,1.776298882961706849e-01,-8.653511462310045643e-02,-9.726934693295569145e-02,-1.022959893479992582e-01,-7.694758192974579525e-02,-3.450055275421425732e-02,4.955855677503068907e-02,1.490085226594793089e-01,1.138899644488446522e-01,3.014423347858442848e-02,-2.848748502320609319e-02,3.757131177672759503e-02,4.678258255803518367e-02,9.411744493939480649e-02,3.653651980752457840e-02,1.334434625307637234e-02,-1.690067762229825465e-01,-1.617081382217529228e-01,-1.495336233015986116e-01,1.242520278590563271e-01,1.218739802272303246e-01,1.365419522517635209e-01,5.204529060429352594e-02,7.824971142322239073e-03,-7.332255903771282834e-02,-3.796918605281930648e-02,1.042442751684569298e-02,6.577263387097703751e-02,-4.551173163347137229e-02,-5.164916481146315796e-02,-6.349257157354377956e-02,-1.522896731063578396e-02,-8.596345202263417848e-03,5.236878939197210821e-03,-3.129851152838371287e-02,-7.257522097385020465e-02,-7.170372975471477062e-02,2.704301145966192532e-02,8.392309871515704622e-02,8.451594375227984568e-02,2.456361496674100767e-02,2.739974806669666883e-03,3.900734297536947656e-03
-1.057499036494354172e+00,-1.063280534610228756e+00,-1.055713311361140994e+00,3.111229560241394326e-02,1.045266749031592696e-01,1.679463810667802259e-01,3.493203046976932347e-02,-3.884689417170411607e-02,-1.215927021442547856e-01,-9.712357040632740857e-02,-9.588155824619323808e-02,-4.415191726975769421e-02,1.060442875249815453e-01,9.490595868563102278e-02,3.336256296087707768e-02,-7.128376304047692735e-02,-6.226925903462322137e-02,-2.975497296082296739e-02,3.512207866351782504e-02,3.575939737395527479e-02,5.876737699017749866e-02,-1.797730554479387566e-01,-6.946286066292908790e-02,-2.841832804822373715e-02,1.869945982317694211e-01,1.148940198329588547e-01,2.318096168374654542e-02,4.532310259785361783e-02,-6.729899829344569706e-02,-8.888118383330141647e-02,1.935270816047792927e-02,2.484719619929624812e-02,3.408274118094030414e-02,-9.836183104669894706e-02,-4.782876804163280898e-02,-1.924821140970172165e-02,-4.159331539775316944e-02,-5.577573396435435427e-02,2.388690561454654207e-03,1.730214582004552804e-01,1.607311680561114842e-01,5.010115331904212155e-02,-2.561276218346894562e-02,4.015989384008128438e-03,1.008815288749053546e-02,-6.058320826516922636e-02,-3.895594210876814067e-02,7.930507423814930901e-03
-1.632174147924071672e+00,-1.586075363487126300e+00,-1.412696612526317175e+00,7.034873032049115960e-01,6.473013256542692329e-01,4.631382871336361395e-01,-1.373047629798221092e-01,-1.642143369955056664e-01,-2.200333888666384796e-01,7.890833059974178276e-03,4.727773702864577349e-02,1.441967917582120950e-01,7.311444290807954383e-02,7.155479941191342230e-02,2.063718565065494198e-02,1.085882217361750380e-03,3.096566836518466551e-02,1.044949105122963406e-01,2.130907506903310239e-02,-5.010200249883013657e-02,-1.890641840563242748e-01,-7.081680563980695398e-02,-2.223128001395114489e-02,6.665029288552716535e-02,8.921867085432903799e-02,9.467330413611879658e-02,8.850311345596097168e-02,-1.286370356974227414e-01,-1.944647699452129730e-01,-1.954531329856944721e-01,-1.725848398160610003e-02,8.859694339270506036e-02,1.970572708614330981e-01,2.902164243308523461e-02,-3.388569533864586175e-02,-1.719763928205679249e-01,1.638278614178922676e-01,1.610880861616339754e-01,1.425593470071453706e-01,-2.483877051187039289e-02,-4.645530142463914769e-02,-1.088128539529970851e-01,-1.019040117089909381e-01,-3.007370308324083114e-02,1.648761200352993339e-01,2.432533720109658626e-02,-1.366001500616752240e-02,-9.390351421246923014e-02
-1.684673925509571957e+00,-1.675823085147361002e+00,-1.458221768313198163e+00,7.854875236871337041e-01,7.422488313985248221e-01,4.366913946855740525e-01,-1.676636055477409570e-01,-1.393449420064971911e-01,-4.722294232110459122e-02,-1.136110775300565173e-01,-9.149743689170396210e-02,-1.295795126523762060e-02,3.419657778636949197e-01,2.918255036580189588e-01,5.310185579751221935e-02,-7.575449372127159020e-02,-4.462756802749192654e-03,6.315849918536782515e-02,-7.544617076001361444e-02,-1.399745770582734583e-01,-1.580861051834498571e-02,-2.017111005850552030e-01,-1.617073818784008910e-01,-9.826530875555472555e-02,1.708431898213610689e-01,1.456329659150191469e-01,4.255072660684367652e-02,6.199616989159312253e-02,1.051216482852596057e-01,1.336899133991894528e-01,1.108089001655701566e-02,-4.203443723329662596e-02,-1.348824347864608919e-01,-4.284561353619496804e-02,-2.319012866666424894e-02,2.813828757905580472e-02,5.069875663353149570e-02,6.846444652175791290e-02,1.419680793794964209e-02,-9.483638813493200370e-02,-1.198432022937229169e-01,8.271762420468548038e-02,-7.354781199048990303e-03,-4.808548396150177928e-03,-1.829354036156991825e-01,4.211954913317711435e-02,4.963538970027079472e-02,9.623030371904053859e-02
-1.499280629846916790e+00,-1.522412085710721952e+00,-1.377411207321752817e+00,5.796426599390341883e-01,5.943593608958436247e-01,3.385911151156171250e-01,-9.873353642418904175e-02,-7.404687682946879679e-02,1.094875813038852924e-01,-8.022986863512447664e-02,-1.032868105864265112e-01,-1.594319631629952660e-01,1.127095689662881289e-01,1.347942355528565228e-01,1.134226802982390286e-01,-2.644399344198379923e-02,-4.873364310307869152e-02,-3.950369646687239972e-02,1.999297744284839543e-02,5.366604752870282602e-02,5.158056366026399220e-02,-1.672877571979392297e-01,-1.845958065927416347e-01,-1.341203613765748481e-01,1.748475948756938181e-01,1.604863868083190037e-01,4.637675946043694208e-02,1.017400405170837928e-02,3.498346919766073815e-02,9.981575710140601354e-02,1.522073633513119917e-02,-4.926935433681925436e-02,-7.383279970338224585e-02,-1.336097434261258043e-01,-9.360200669510879146e-02,-3.823609510999340794e-02,4.018940408377467272e-02,9.196433608392555470e-02,6.588481132466675327e-02,9.619277735091832926e-02,2.789250234994768846e-02,-7.464121188965739534e-03,-8.328948324736928921e-02,-3.621357941858387164e-02,2.333433972752184567e-03,4.020983814739526735e-02,1.421295866320019217e-02,2.619094277692523686e-03
-1.401038463233600595e+00,-1.378770847418058443e+00,-1.266703413641740106e+00,3.790080865721038306e-01,3.432874659515335325e-01,2.510059956485216626e-01,-5.504985468589215780e-02,-5.492112533592018175e-02,-1.127949919447917074e-02,7.560338422369305977e-02,6.790667598200565702e-02,-8.321362056348895198e-02,-4.257954873311691618e-02,-2.721381652864673928e-02,6.862547201701613142e-02,8.563297488595320028e-02,8.586869205612861211e-02,1.987966200683742232e-02,-3.615936999419615966e-02,-2.111686405539721020e-02,-1.618245730702775817e-02,-1.061357281934971614e-01,-1.565065715620824471e-01,-1.215107421145691924e-01,1.626281886749664785e-01,1.993794228314123562e-01,9.977423530172284394e-02,-5.285879104814748819e-02,-4.093965246452145601e-02,6.750586257020758929e-02,1.379604119838884028e-02,3.773603232172739741e-02,8.617321204605615792e-02,-1.126181527412870031e-01,-1.688407959672944547e-01,-1.672563401556653728e-01,3.378797181152970452e-02,5.897199549166248084e-02,4.268803631720907710e-02,4.791585299567539119e-02,6.819395512107641333e-02,9.379849440563045593e-02,7.702328097804747586e-02,4.128361764513555077e-02,-6.477895567008737365e-02,-6.869958974445028455e-02,-5.414641304270589872e-02,1.568390663303366244e-03
-1.278299500201590222e+00,-1.274282029215991985e+00,-1.201843621270213047e+00,1.805611295193312316e-01,1.801897822511465685e-01,1.804798246802521156e-01,8.039164627534646501e-02,-1.113242082067377250e-02,-1.287388238569992516e-01,-9.369267092280310349e-02,3.647062081624136143e-02,5.865181483074249913e-02,7.235655484194115916e-02,3.683300379623358212e-02,6.089214229998390904e-02,3.128324710742116238e-02,4.132913986263180017e-02,6.470339697731489204e-02,3.550398593513778150e-02,2.090847096839894628e-02,-2.913573105533509219e-02,-1.237369764896660562e-01,-1.387764529515753964e-01,-1.153014483999222073e-01,6.831806722863904835e-02,8.004821316440625945e-02,7.165514135385898931e-02,6.180995422663275451e-02,3.684716038762100854e-02,1.224946566097289379e-02,2.185997674150103737e-02,2.345151991975492553e-02,4.887273398999270047e-02,-1.411501581403230010e-01,-8.140384647720740052e-02,-5.273020641343156151e-02,6.110715802424280391e-02,2.769095077608909466e-02,3.679679368484634235e-03,5.417454296973845534e-02,7.149859399587929487e-02,9.164807243831225858e-02,-2.164485984759156184e-02,-4.162855789624209102e-02,-5.858580330828432742e-02,-8.613110112729827419e-03,-7.855757171848309559e-03,-6.381110329513178629e-03
-1.139165328382100828e+00,-1.095735369664584402e+00,-1.015078222200782587e+00,3.796201273360133577e-02,5.041438260319467020e-03,-4.583443188467078988e-02,1.078094180539004299e-01,7.915455707168900235e-02,4.185171120969095188e-02,-1.524902903238811724e-01,-1.145876154209697212e-01,-6.715560411484738923e-02,1.799089178020984447e-01,1.894938886627030306e-01,1.797020057354826728e-01,8.112283130032046929e-02,2.341833828915340990e-02,-5.041290010180599773e-02,-1.054853019095192551e-01,-4.310371378767425404e-02,2.044863638742488304e-02,-1.164255812759326381e-01,-1.669895966664927955e-01,-2.044442570156728700e-01,1.593289390984045095e-01,1.510850237587237355e-01,1.104007616268322112e-01,-3.016509837458651588e-02,-1.872042181611704298e-02,1.182591861781718059e-02,-1.180360143544160606e-01,-7.522409564022033979e-02,1.515944364087286333e-03,4.961236440843254381e-02,3.125221343917985312e-03,-3.529487333846597491e-02,-8.763506037370476232e-02,-5.681552167642797690e-02,-3.168724108040969767e-02,1.526555752284206591e-01,1.424665084433830997e-01,7.879281384676370403e-02,-4.983517604698160797e-02,-1.030226882382130893e-01,-1.251714617890603842e-01,3.115009511437876952e-02,8.066652906426852176e-02,1.307217239688936439e-01
-1.106217149858854665e+00,-1.101283495428559300e+00,-1.025366540483801936e+00,1.044074929244992317e-01,1.045424724124116023e-01,8.543445704710278532e-02,3.819290484540879133e-02,4.955732020005094995e-02,7.677733726131053676e-03,-7.141015505604834945e-02,-9.698047795857486775e-02,-5.551823711270841705e-02,2.666611738906358303e-02,4.026924012781952361e-02,6.245946877465625817e-03,3.521516257603918981e-02,2.086257414686640971e-02,-3.337221966545584045e-03,-6.800262183640183589e-02,-5.748583996692148423e-02,-5.547840245499208699e-03,7.231664625814987479e-02,5.073962896336615958e-02,-3.819774980158185951e-02,-6.300376309561614430e-02,-5.781592889179775624e-02,-1.277989606020422421e-02,8.817465259234849584e-02,1.062065047125866635e-01,9.528510259408640160e-02,-3.122668972973203713e-02,-3.040134461497460625e-02,-1.754187079137472377e-02,-5.765760986031180646e-02,-6.760147231738762585e-02,-8.281696261210606813e-02,8.598360875474933204e-03,2.877274972151711366e-02,4.770452762156382476e-02,7.181382568810197597e-02,6.564154718369619168e-02,4.195235861207427530e-02,-8.762483937006182444e-02,-9.825975676059672814e-02,-8.131894413144526157e-02,3.995137970630743135e-02,4.340439703055446602e-02,3.823516242984811853e-02
-1.203373293460858084e+00,-1.234424630258748268e+00,-1.220073978423422689e+00,1.578102159981168984e-01,2.610128815426433491e-01,3.202985563008332592e-01,2.010889912420031067e-01,1.218086417888720741e-01,3.828797524257563506e-02,-3.729067722818589226e-01,-4.079681270143065142e-01,-3.188646104475257870e-01,2.780022749753544020e-01,3.590155304498101052e-01,2.234368255586702823e-01,3.466986015693027112e-02,1.633244596840489633e-03,1.282878634540429164e-01,-1.389599240947869407e-01,-1.815697425460856829e-01,-2.566637766921771591e-01,1.510503321035052415e-01,2.080905590197864308e-01,1.223943749567515255e-01,-1.802094791456647915e-01,-2.284689995667646689e-01,-8.416948838654481069e-02,-6.671138672848303530e-02,-9.288839745867680242e-02,-2.097805224887840936e-01,1.101152603468842778e-01,2.202208729618473637e-01,3.231507715878690346e-01,4.082822132413893579e-02,-5.053868504533953754e-02,-9.057946394175042659e-02,2.163831149957553754e-02,5.730801333109707130e-02,6.490728798098448216e-02,-5.753167211554402471e-02,-5.180052816657213649e-02,-8.751502055226757781e-02,1.282544097757994106e-01,7.466169345940124047e-02,7.344388607125060253e-02,-1.035368111298318738e-01,-5.587010920993967095e-02,-2.643684288019818376e-02
-1.078383067326410094e+00,-1.055271888461891683e+00,-1.001244437720441915e+00,4.404873802615898171e-02,2.502265746017752826e-03,-3.677893443987156896e-02,4.900258971003676467e-02,1.454774028831311294e-02,-2.461374219378470798e-02,-6.016517378178866393e-02,8.568035048987183988e-03,7.721425169443968395e-02,1.476415571429394967e-02,-5.035972969316729851e-03,-2.762817534862204230e-02,3.974734701893402333e-02,3.532819443842399182e-02,-1.415237110873779694e-02,9.347369331823457417e-02,9.359476938783618805e-02,7.069999645326149884e-02,-1.917235594078173511e-01,-1.607913305286603756e-01,-8.310213423986988202e-02,4.478848631544023184e-02,6.387813352324535343e-02,4.008228451194267850e-02,1.497406178705652791e-01,9.318412786596466657e-02,3.353208198777123811e-02,-7.958212205607294309e-02,-7.894460917128127975e-02,-4.823973943867056191e-02,-3.972297065512731679e-02,-2.078719934161208163e-02,2.839185286640006581e-03,-1.384902046014897629e-02,-6.199740146712386622e-03,3.026540384005848780e-02,8.561290678040429925e-02,8.577295066278856073e-02,3.226792205397102653e-02,-1.996910129236592613e-02,-3.522935937225130099e-02,-1.964683093664477964e-02,-3.770649743698124834e-02,-3.505137981714914752e-02,-3.144470629648322968e-02
-1.196777478373680870e+00,-1.143991476928659434e+00,-1.024943595589682621e+00,1.772599636086990282e-01,1.185673326837501651e-01,5.448023434698775341e-02,6.151524718447441004e-02,4.148598891557555429e-02,-4.102635594417910342e-02,-7.931147121789171306e-02,-3.240492306571741282e-02,3.528325889069293137e-03,6.597117107489967880e-02,2.531079468962304721e-02,3.501835165895858266e-03,-4.329588800603061810e-03,-3.195155502756135638e-03,-1.891814187136270364e-02,-1.914430759440162791e-02,1.105508307813119970e-02,3.807050084327900236e-02,-8.956424084263514551e-02,-7.211030416035274504e-02,-6.584744935659632425e-02,6.526805520075550093e-02,2.650617278395028809e-02,1.484991985067383134e-02,1.132039996174504515e-01,9.437938332598194702e-02,5.121214957950710051e-02,-6.270088528662998151e-02,-3.840936749095114067e-02,-3.315574077450983426e-02,-5.526240998000735150e-02,-5.767441082335689195e-02,-4.168738637561087562e-02,3.430037746622668568e-03,1.927939506716871629e-02,3.858334191143034109e-02,4.561430527494513693e-02,8.195129241848970320e-03,-7.621215479151338158e-03,2.673675650144134025e-02,4.212096928370016868e-02,3.064721182149880360e-02,-5.183207640709047020e-02,-3.905354369907268475e-02,-1.619759528860037273e-03
-1.043985490068646049e+00,-9.547160385525522708e-01,-8.602716608570480927e-01,3.144382523064345042e-02,-4.564572654945703994e-02,-7.969885074652352519e-02,8.746108945493041853e-02,1.127038135776397137e-01,9.669567438291998274e-02,-1.481760555622442244e-01,-1.990112170136106862e-01,-1.827198550490390094e-01,1.171850610601355425e-01,7.915707463244059383e-02,-1.206499891316652369e-02,-4.478679390812647515e-02,-4.346911195936320471e-02,-6.484607505670531014e-02,-4.408223376918977282e-02,3.065015040562411863e-02,7.530205343008861130e-02,-2.966292218538576012e-02,-3.364799739272526791e-02,-2.405441151332496710e-02,2.531124137831506846e-02,-9.415384793290562312e-03,-3.539290363510236292e-02,2.524052945931069825e-02,5.247224348514067244e-02,6.279259488528321498e-02,1.015800643488908202e-02,1.744989052502684233e-03,2.083866949691283790e-02,-3.068734920360998916e-02,-7.917290509394016990e-04,1.401897351537167470e-02,-1.246039727755368642e-02,-3.200769214621466963e-02,-5.431495032852727556e-02,5.175490155499543748e-02,7.112823534127552839e-03,4.807912376940349716e-03,-9.556654597774784030e-03,1.386491893890922505e-02,5.072050439042841141e-02,1.497448499159753296e-02,2.109984416580312772e-02,-1.174481530907672995e-02
-1.274230673706470585e+00,-1.223900281462521278e+00,-1.104702385798983721e+00,3.177174485351871303e-01,2.164079948460150560e-01,4.385374573643049945e-02,-4.314501019485009886e-02,8.527581987020627780e-03,6.171604426981466829e-02,-1.597634181784703122e-02,-1.898404283396766534e-02,-9.161633653290882084e-03,5.786050448859839102e-02,4.208060006596000407e-02,7.771547852944060610e-04,-1.380139725192749134e-01,-1.282635965865045469e-01,-7.589305803164848874e-02,9.885348728152430764e-02,7.516520873726893759e-02,3.286074847162869655e-02,-9.995260467990464692e-02,-5.105518514294886401e-02,-2.848028562906527658e-02,1.242615420384156344e-01,9.641562015029093990e-02,8.977495913997086963e-02,-1.492243988456257164e-02,-2.538751557177616747e-02,-4.110249229539498367e-02,7.397278998297120503e-03,3.562832070236224974e-02,4.394513343371170971e-02,-3.404399131133925560e-02,-2.930076612063992753e-02,-1.647815198241480567e-02,-2.821725363189313881e-03,8.937131933405697420e-03,3.797429878097187406e-02,-2.486546021214764562e-02,-5.157586793354285853e-02,-5.591425295375963833e-02,-1.323444882773897047e-02,-3.871398891858134073e-03,-1.820348201295347856e-02,5.525766262164258369e-02,4.928899618543015893e-02,3.909767430136545929e-02
-1.169923594535383415e+00,-1.099852973537386314e+00,-9.516229252838589447e-01,1.432013340798091172e-01,5.824805712945924779e-02,-2.718266873234866099e-02,5.746129196356268565e-02,5.537069282070769538e-02,1.017639107140744237e-02,-1.187288088340283099e-01,-9.432532809586668954e-02,-8.699680889929693739e-02,1.170740714443375963e-01,1.141473466492074068e-01,8.003761342177397042e-02,-1.508351076465310955e-02,-4.872167071736265009e-02,-9.325303703410109391e-02,5.852141594409513564e-02,6.298169676861405109e-02,1.625873014233358838e-02,-1.854574078305757379e-01,-1.827385721439102884e-01,-6.289653729209422617e-02,1.352947147389657045e-01,1.355310161662611756e-01,1.071274171432084477e-01,3.080953009849766652e-02,3.695416946073849102e-02,-5.789846264705029999e-03,-6.353207608360214587e-02,-6.333749291362915368e-02,-1.761623751851346467e-02,-3.866122809838689472e-02,5.180470085047215317e-03,2.919032697833499543e-02,-1.927321942947770456e-02,-4.517919941804164619e-02,-2.820733621598927460e-02,1.416884827586511741e-01,1.208873703991966281e-01,6.080340898507245045e-02,-5.003908835453983739e-02,-2.137208283560459998e-02,-5.420860612963963876e-03,-2.327318419723405779e-02,-3.370475470503962040e-02,-2.454456957389118676e-02
-1.151910775528486086e+00,-1.066463168701145436e+00,-9.150090662484431370e-01,1.123383827956131037e-01,6.334926243593104467e-02,9.843091313103957685e-03,9.883512171797426138e-02,3.047952985066878021e-02,-6.869646667616229052e-02,-6.567011865576265206e-02,-3.570930062614238037e-02,-2.703273932564271426e-02,-2.180526805560152950e-02,-5.974241221583598618e-03,8.787696414202527534e-03,2.865213808253973954e-02,1.235085923167873398e-02,-1.472604769423976195e-02,-5.019080489728996314e-02,-6.752013503179155052e-02,-3.936516989682001949e-02,-6.095555444299600306e-02,-5.170755447902865981e-02,-6.589864233077441513e-02,4.173995734343984715e-02,2.660140922366269894e-02,1.895951002516101450e-02,6.925879985261743088e-02,5.759913764501355810e-02,1.670949781549490795e-02,-2.629795978550792529e-02,-2.500674001713358227e-02,9.888597983530931015e-03,-1.830580195914197419e-02,5.189444003416892465e-02,8.197911580312587654e-02,-2.518712485703947321e-03,-2.069167671723113125e-02,1.772319213233491259e-03,1.035599539043450673e-01,3.776719744681363011e-02,-4.974101515632747827e-02,-3.668017373412840731e-02,3.477146002578775097e-02,7.218389684443438092e-02,-1.991880886859641320e-02,-4.163009777580787413e-02,-3.958183456216576163e-02
-1.213655448675416970e+00,-1.152797424267101523e+00,-1.057711307876766593e+00,1.994187784687653231e-01,1.227174157192681969e-01,6.847749964366538211e-02,3.951588531243793723e-02,2.623329934514545200e-02,-1.436651691269956801e-02,-1.468300262075174223e-01,-7.001150158868678364e-02,-2.844527833651314466e-02,1.632179620724629743e-01,6.635438468574218762e-02,-1.423301413643997954e-02,-1.312484085148472868e-01,-8.087021033203638243e-02,-1.904555973513618466e-02,1.006181568707876783e-01,1.089788888959651418e-02,-5.187601096905702230e-02,-9.260899860586713217e-02,1.775152783661059289e-02,4.532514194241542282e-02,-6.265598598474277775e-03,6.414362532591629494e-03,1.254296848950485141e-02,3.912511974382416186e-02,-2.447214533743292952e-02,-6.013547075509061840e-03,6.751164059061981471e-02,6.586911251946821200e-02,2.572977203408722061e-02,-9.978522565205495687e-02,-3.681862257191213100e-02,-1.168317192191022612e-02,2.340907432356156836e-02,5.456424465075539187e-02,1.245198286464414966e-01,1.106146750184469896e-01,-3.202902246808224558e-03,-7.978126488169187680e-02,-3.876960089723074931e-03,6.055349840523018001e-02,4.844094582156305284e-02,-4.900904038306975324e-02,-6.305043241663113585e-02,-4.177893931073892869e-02
-1.241546142046708656e+00,-1.122413548506591585e+00,-9.512678418968147920e-01,1.941121598659850678e-01,7.981876592013825711e-02,-1.641408270365781949e-02,1.034439520113219491e-01,5.779715402670102670e-02,-2.574058482793752795e-02,-8.366303046992283610e-02,-3.163748925290543051e-02,-1.360076797834910110e-02,9.005207600682552105e-02,8.664468807843325737e-02,4.165100907771931288e-02,-1.407031567124951699e-01,-1.312091469910522668e-01,-7.287887277679182263e-02,4.154515717241433204e-02,8.010144394026721265e-03,5.509886483294861893e-03,-3.200816824420876089e-02,-5.214686304622360817e-03,-3.647222138121815511e-03,5.140494802804243535e-02,2.151742211228768395e-02,2.917270980266835172e-03,1.964407475611855067e-02,1.642729320276333643e-02,-1.314803157221896418e-02,8.173265895419239147e-02,6.414165129484998562e-02,8.472536939961125557e-03,-1.573057437423780458e-01,-6.936333621016214923e-02,4.149738578569432679e-02,1.140026138010996337e-01,6.606572830713806910e-02,5.863791467177355970e-03,2.093325551401348933e-02,-8.055679724517886275e-03,-7.429168779862411510e-03,-7.359533346164409684e-02,-6.859707708317727692e-02,-5.874809777379465942e-02,1.204427982782365660e-02,3.614453915368931458e-02,5.702552091537524404e-02
-1.325362732182472802e+00,-1.311203604576663517e+00,-1.152990292039411058e+00,3.454597242146672520e-01,3.228312864269348714e-01,1.776298882961706849e-01,-8.653511462310045643e-02,-9.726934693295569145e-02,-1.022959893479992582e-01,-7.694758192974579525e-02,-3.450055275421425732e-02,4.955855677503068907e-02,1.490085226594793089e-01,1.138899644488446522e-01,3.014423347858442848e-02,-2.848748502320609319e-02,3.757131177672759503e-02,4.678258255803518367e-02,9.411744493939480649e-02,3.653651980752457840e-02,1.334434625307637234e-02,-1.690067762229825465e-01,-1.617081382217529228e-01,-1.495336233015986116e-01,1.242520278590563271e-01,1.218739802272303246e-01,1.365419522517635209e-01,5.204529060429352594e-02,7.824971142322239073e-03,-7.332255903771282834e-02,-3.796918605281930648e-02,1.042442751684569298e-02,6.577263387097703751e-02,-4.551173163347137229e-02,-5.164916481146315796e-02,-6.349257157354377956e-02,-1.522896731063578396e-02,-8.596345202263417848e-03,5.236878939197210821e-03,-3.129851152838371287e-02,-7.257522097385020465e-02,-7.170372975471477062e-02,2.704301145966192532e-02,8.392309871515704622e-02,8.451594375227984568e-02,2.456361496674100767e-02,2.739974806669666883e-03,3.900734297536947656e-03
-1.057499036494354172e+00,-1.063280534610228756e+00,-1.055713311361140994e+00,3.111229560241394326e-02,1.045266749031592696e-01,1.679463810667802259e-01,3.493203046976932347e-02,-3.884689417170411607e-02,-1.215927021442547856e-01,-9.712357040632740857e-02,-9.588155824619323808e-02,-4.415191726975769421e-02,1.060442875249815453e-01,9.490595868563102278e-02,3.336256296087707768e-02,-7.128376304047692735e-02,-6.226925903462322137e-02,-2.975497296082296739e-02,3.512207866351782504e-02,3.575939737395527479e-02,5.876737699017749866e-02,-1.797730554479387566e-01,-6.946286066292908790e-02,-2.841832804822373715e-02,1.869945982317694211e-01,1.148940198329588547e-01,2.318096168374654542e-02,4.532310259785361783e-02,-6.729899829344569706e-02,-8.888118383330141647e-02,1.935270816047792927e-02,2.484719619929624812e-02,3.408274118094030414e-02,-9.836183104669894706e-02,-4.782876804163280898e-02,-1.924821140970172165e-02,-4.159331539775316944e-02,-5.577573396435435427e-02,2.388690561454654207e-03,1.730214582004552804e-01,1.607311680561114842e-01,5.010115331904212155e-02,-2.561276218346894562e-02,4.015989384008128438e-03,1.008815288749053546e-02,-6.058320826516922636e-02,-3.895594210876814067e-02,7.930507423814930901e-03
-9.509808755856015150e-01,-9.504688011489049737e-01,-8.961382340502330734e-01,-1.287283292728177431e-01,-6.041922516321237419e-02,-9.582565018030401310e-03,1.416176084342169461e-01,9.986568167281148489e-02,-8.617503418850966379e-03,-9.651000105414278551e-02,-1.287172517785070136e-01,-9.897252685518286019e-02,-1.195732721264993054e-01,-1.264816291729464470e-01,-1.031402099289440016e-01,2.212345598815610437e-01,2.549073130853088398e-01,2.116281575549951166e-01,-7.187657971753325103e-02,-1.338587195577588818e-01,-1.745425397799336975e-01,-5.424571567644075054e-02,1.486171153181143657e-02,1.211954655299627148e-01,8.840716603946294216e-02,2.999950572823159231e-02,-6.644582153694295057e-02,-6.283699255281752216e-02,6.418669441571732415e-03,9.381682037679134334e-02,-9.741037876793713288e-03,-6.561813502350810623e-02,-1.205920132090650132e-01,-7.105878524993440581e-02,-5.802445634323177143e-02,-3.753742407754810662e-02,6.461931116473579317e-02,8.780627687422136451e-02,6.025774630341836080e-02,-5.777854471334827047e-02,-8.399023459057919361e-02,-5.973407309350000499e-02,5.128237109508071434e-02,1.869473189810633151e-02,-2.998895238316630352e-02,5.681646211010690783e-02,9.553545078262069834e-02,1.186239912343406561e-01
-1.180406083288461527e+00,-9.887709097445334105e-01,-7.411168606868383524e-01,7.823419759195619771e-02,-1.124871710077123693e-01,-1.981264616907150722e-01,4.620139150807543033e-02,1.203626004283140372e-01,4.648560928858765789e-02,-4.988611407804234565e-02,-5.179947371608115830e-02,-1.688248684608437827e-02,1.167314078529250454e-01,-7.589455926389733487e-02,-1.664111014954776091e-01,-3.784648709308981174e-02,7.175688443834367380e-02,1.295439040077639263e-02,6.510243511806261540e-02,1.027282341656270831e-01,4.849047201666054074e-02,-7.429080704663290624e-02,-1.494454505204894923e-01,-1.134652953611321319e-01,6.943542142642893100e-02,8.635172292510494285e-02,1.141864937003518043e-01,-3.001476337812290091e-02,-1.950304565025142919e-03,-5.092991831218435933e-02,-2.253665792656120437e-02,-2.795704465534422020e-02,3.585793371040404964e-02,-1.722248987734050982e-02,-6.008669270871051793e-02,-9.015668460714677812e-02,-2.105939655619417164e-02,6.090267279882310286e-02,1.052960869319555237e-01,6.809940763681195108e-03,-8.112531971261950289e-03,-5.478994982930485147e-02,3.454331430245313750e-02,-5.601893164014908055e-02,-5.673673418220654546e-02,1.649163385468632725e-02,9.069219262556273142e-02,1.255417489085909333e-01
-8.397661371267109987e-01,-8.197422878685818315e-01,-6.979490653713136261e-01,-8.577966085164856480e-02,-1.212037872042478898e-01,-1.742112295858228854e-01,-4.063275640443046038e-02,-4.597977300616157975e-02,-1.062863674133306541e-01,-1.533055090281348898e-01,-1.275317813419830915e-01,-1.027355203094924563e-01,6.884870371650789189e-02,9.103133515170611090e-02,1.065376227859606562e-01,1.282114950832872746e-01,1.231797345443220032e-01,3.408663982124856412e-02,-1.547146177447829563e-01,-2.558973185973297815e-01,-1.843306721952092941e-01,1.081578828706921264e-01,1.661151251963050579e-01,1.281730776550478734e-01,9.372363594718685631e-02,1.179564144329501574e-01,5.051580412642357742e-02,-8.640894430283765915e-02,-1.229726864925720364e-01,-6.406310995597246094e-02,-4.489153615004214809e-02,-6.509565910473526576e-03,5.530799782644901796e-02,4.446695460962941937e-02,-2.142683574469168850e-02,-6.784716628337708610e-02,-1.809389843817360566e-02,-3.172325667574729668e-02,-6.790951901610858821e-02,-6.676846095030153361e-02,5.539968497963707050e-02,8.952482990318648415e-02,-1.239839525804262155e-01,-1.298184605514655643e-01,-8.275801471259451592e-02,1.711381886480149994e-01,1.293190302426220628e-01,8.412843437515310496e-02
-9.817188272809220795e-01,-8.767236463969965143e-01,-7.107524919158919596e-01,-7.358670547202263157e-02,-1.458434585226824343e-01,-2.601801899240154814e-01,6.840892330076872585e-02,-3.015294460404722293e-02,-4.916500279779639770e-02,-1.530638745782088028e-01,-5.635665072812399284e-02,-6.043154262613464195e-02,1.405950330288287808e-01,1.557923215033703013e-01,1.494088968896772618e-01,-1.199326395378894246e-02,-5.256262249126675279e-02,-7.824205090331957935e-02,2.070663101809369980e-02,-2.526671043197771874e-02,-2.140358260886814773e-02,-6.667632722409047585e-02,-6.263021221275044681e-02,-9.514936169052248816e-02,6.983404672226547344e-03,3.950684071310110734e-02,6.679020054099620018e-02,-3.513656552197599869e-02,-2.691426927793976950e-02,-1.151529303565313259e-02,6.512318287512988690e-02,1.069264036941355300e-01,1.126083376711706635e-01,-7.800270407849231591e-02,-1.023021411273077330e-01,-9.617049924854773058e-02,4.896827055804259254e-02,5.858229355080788597e-02,6.707202896768252320e-02,1.036923607989960749e-01,1.855730905840750206e-02,-5.384829519231319750e-02,-4.288654488545258492e-02,-4.491724092331545598e-02,-3.028901481584595629e-02,-1.118244638032942287e-02,4.451868636251523487e-02,7.142687123048394038e-02
-1.131928012445463150e+00,-1.167859347871822218e+00,-1.128665592062505274e+00,-4.501161820417972498e-02,1.520125177069376332e-01,2.918627963331913433e-01,1.263176759131263982e-01,-1.276389895327358602e-02,-1.123411406455280398e-01,-2.618997413206927694e-02,-6.642672821068171252e-02,-1.039945531223916003e-01,9.691311196845316112e-02,1.138987043375044722e-01,9.742097502418986532e-02,-1.262172451271683649e-01,-1.271253926731706618e-01,-1.107783084374836385e-01,6.702532509250403760e-03,3.979359850488582359e-03,1.083877704264842902e-02,1.701901958462890274e-01,1.614443221476670465e-01,2.547498876003761320e-02,-8.437550553807929288e-02,-9.593560444727843028e-02,-1.525417015994524027e-02,6.037584057222481621e-02,1.157094142265772119e-01,1.227937577835596927e-01,1.328510745771425278e-02,-9.944297762821613373e-02,-1.544080225414552754e-01,-1.561664602998058815e-01,-8.753086881270846775e-02,-4.895261887967460555e-03,-6.765216337994552076e-02,3.791612458222422266e-02,4.661622581806076221e-02,1.336429059936068697e-01,8.219529328563941403e-03,-3.660498267736021771e-02,2.549922121681295895e-02,3.132039275905095649e-02,1.155657782003290113e-02,5.075787668600798865e-03,3.294591043102567535e-02,6.053234077493337140e-02
-1.412030936632933109e+00,-1.300525653614253097e+00,-9.878698609384848339e-01,2.182651411264695251e-01,1.023655842332615307e-01,-1.418664825454741818e-01,1.018615199502502927e-01,1.144384010452061951e-01,1.291927928448791674e-01,1.941108864188061667e-01,1.144321213227815354e-01,-8.663684794160728120e-02,-1.431598495028119922e-01,-1.029700097876246889e-01,-4.210179015206458319e-02,-9.217247347580163896e-02,-1.197516444943400732e-01,-4.129164212432567121e-02,1.745160397230123561e-01,3.146910076410791013e-01,1.804107470059481411e-01,-4.307892043764145263e-05,-9.647704362331871453e-02,-8.766753228124689670e-03,-1.102100951409608343e-01,-2.210240875662328186e-02,3.439650970883536413e-02,1.469601589510024231e-01,-3.029693567706555346e-02,-7.153126326493568221e-02,-4.192885757527287094e-02,1.643131905554859606e-01,1.575708197445118142e-01,2.394625705825737319e-02,-1.566191678341729288e-01,-1.170594974217594592e-01,-1.361393224660463475e-01,-2.821262845475609390e-02,-1.500133444305780557e-02,4.725698588247902870e-02,1.516968819912778953e-02,2.356218572259155888e-02,2.055440992153566293e-02,3.254058760463227062e-02,-1.786343962532636193e-03,8.649936773230594567e-03,-6.575086937387877774e-04,-1.102462669446414162e-02
-1.190446678032669903e+00,-1.072264363039018287e+00,-9.426540733519678250e-01,2.885961583427015809e-01,1.722981859112603098e-01,7.945112430732219344e-02,-1.136432905801752630e-01,-1.013274180655586582e-01,-1.182769867909841677e-01,-5.495015019694484554e-03,-2.574342145578669555e-02,1.090700086460957754e-03,4.552990741547292136e-02,3.711456604138278163e-03,-1.222563130451716357e-01,-7.316025364035200207e-02,-5.007444581374100728e-02,3.402549291451674451e-02,1.280276810474475779e-01,8.333871705150294740e-02,5.644667206832289924e-03,-1.986318527186608784e-01,-9.471067607473875050e-02,-1.109974065638977443e-02,8.760849192140258979e-02,1.464544547606497389e-02,-3.746863115959862128e-02,5.971266629811414206e-02,8.053462231889720047e-02,8.177752266664926883e-02,-2.188713113686076989e-02,1.790886982772741873e-02,5.634045217758820029e-02,-7.550418035122749560e-02,-8.299862336410832042e-02,-4.065806917732295300e-02,6.412045568817879848e-02,3.219355717836105274e-02,-5.244239765802857778e-02,3.419452164268841493e-02,2.718163662746187273e-02,7.697407240014302043e-02,-1.427210770641487714e-02,-2.436457572571256586e-02,-7.489369839845097521e-02,-1.464247721074530065e-02,1.976689089970000771e-02,6.454800564063691015e-02
-1.184055937260040547e+00,-1.156450912974871459e+00,-1.065585024481029208e+00,4.173940168112138388e-02,1.484096475754020927e-02,-1.052544548628044085e-02,1.319246990250277640e-01,1.281213270896968404e-01,5.609588680441472686e-02,-1.264275166542981887e-01,-1.352538051026605237e-01,-1.388633985776713264e-01,1.112296194146546457e-01,1.221812311147631863e-01,1.400316854852135251e-01,3.637150233090378354e-02,3.753799595433074399e-02,5.364070326638663982e-02,2.170376441513938506e-02,4.508504266214825862e-02,4.689745575734727973e-02,-6.402087593718702729e-02,-1.093338986469579027e-01,-1.559924542920425872e-01,6.485577843263860831e-02,8.261778800690292024e-02,8.439194318156530150e-02,-4.488213216117779153e-02,-5.374580893933034176e-02,-3.708609401204510103e-02,7.161236075058197148e-02,1.124557620128675550e-01,1.077061495480316905e-01,-9.177834728785001783e-02,-1.161676581171694339e-01,-1.081425709284744435e-01,4.052386557548027374e-02,1.280284813544703068e-02,2.423073430164723874e-02,1.661801671835347414e-03,1.520895796613504387e-02,-1.521421053075241482e-02,-2.211321461874345140e-02,-6.050595620564314971e-03,7.593024799751676643e-03,1.189532176853400763e-02,6.346032916334396964e-03,1.092248709096110826e-02
-1.044585700824897545e+00,-1.012392811361960909e+00,-9.802295415395214651e-01,1.647967905202711233e-02,-2.522583532694078895e-02,-2.467502407615704274e-02,1.244068336764095895e-01,1.307941522543872026e-01,6.712457821160240645e-02,-2.782298969207083750e-01,-2.039129113661796999e-01,-7.754443937587066071e-02,1.800522848877849635e-01,1.237035478620945594e-01,6.167614738051244161e-02,-8.671872439542763211e-02,-8.439655238405564808e-02,-9.187722221861713279e-02,1.022046983758465311e-01,1.703962948513499873e-02,-4.231427248544642611e-02,-1.366801692478031294e-01,-4.116830215406055982e-02,-5.963281460371555077e-03,3.543809538902521761e-03,-1.677531392436943866e-02,-1.272996180641695375e-03,1.365170232166764419e-01,1.370210875744126700e-01,1.327998999271673419e-01,8.777561450025141848e-03,-3.013843030264839323e-02,-1.179695645968778239e-01,-6.261604199968869022e-02,-2.109125554547915116e-02,5.348359599241348655e-02,6.347657523200611607e-02,5.095940181132046359e-02,-2.150917944164135176e-02,7.050717538506755255e-02,4.457368324995872322e-02,1.086885490223101491e-01,-7.545382012658502502e-02,-4.017964051557373906e-02,-3.873488524282436840e-02,-2.159130617212920086e-02,-2.872841133653692564e-02,-2.161314234615284782e-02
-9.655805474836297586e-01,-8.823317042493834528e-01,-7.946457617097306692e-01,-8.075230362124746764e-02,-9.981522754931301811e-02,-7.593102422417767616e-02,-4.680300820840101877e-02,-1.085095858916407807e-01,-1.367070599091704530e-01,-3.126759194523245217e-02,-1.114255302125410386e-03,2.592667985419986471e-02,7.009292224960862738e-02,-1.062247072072214187e-02,-7.138215622171267816e-02,-2.687555175308364158e-02,1.344894777338769519e-02,1.273660576631008637e-02,1.119698009883052930e-01,7.491558366057250729e-02,-5.457579593568791937e-03,-9.511535719973712721e-02,-2.980333120016654888e-02,7.354237953461103920e-03,6.493489234686294909e-02,2.949834783729703667e-03,-3.614021332446914342e-02,2.839694165085798055e-02,2.253909559530612242e-02,4.125500077796094567e-02,-2.719038060684453306e-02,-7.789559135909108339e-04,1.002334651747982010e-02,-4.168710149063115100e-02,-2.112459580047252455e-02,-3.623343894919757446e-02,3.085631981984440775e-02,7.846787824057463445e-02,5.428755306538547015e-02,4.704859025244140930e-02,2.051051804167844383e-02,3.642676379746905436e-03,-4.270916475177327642e-03,-2.999678963405125881e-02,-3.947239164436734150e-03,-3.367057107248080244e-02,-2.866557438862570029e-02,5.277285381888103220e-03
-9.761517790900451352e-01,-8.948847856104524823e-01,-8.038547808718323751e-01,-7.409993827561681123e-02,-1.262117017121323903e-01,-1.190479096090709954e-01,1.066689756104488053e-02,-5.673239423572459111e-02,-1.260203822405133733e-01,-8.498791199964329801e-02,-3.030077343510347715e-02,7.027836462335227373e-03,1.415892518742946082e-01,1.034593642399064262e-01,4.274067753117533064e-02,4.138987586211293271e-03,1.659825623350230650e-02,1.579118103890892952e-02,3.142973056040386168e-03,5.097456601526778250e-03,-1.050263994917161221e-02,-1.958051050969011608e-01,-2.196262194225185038e-01,-1.785229082530745415e-01,1.283538943965588652e-01,1.281172972314111591e-01,5.289788166201785796e-02,3.583489894846520613e-02,4.893328576650808615e-02,6.767580240990446472e-02,4.259149244384820288e-02,7.511380343810604432e-02,9.909533723392892346e-02,-4.883892228214974096e-02,-6.997351899531632953e-03,1.251960226644782508e-02,-2.165790959633977567e-02,-7.792916438520887390e-02,-6.363233216050934171e-02,-3.646407785003083317e-03,-9.157804358795510954e-03,-6.351691624666816124e-03,-3.513557700101713893e-02,-2.591629381532930404e-02,-3.524676560538541475e-02,7.410203241744947600e-02,7.051700324892822003e-02,4.548238779320816494e-02
-1.359909780080758468e+00,-1.266297508003674022e+00,-1.003488214005574530e+00,4.162727301935101876e-01,2.824304215811961338e-01,6.688895280723292092e-02,-4.818474771068528839e-02,-2.174938943356662796e-02,-9.124484530901441626e-02,-1.033093711234033540e-01,-8.099891625768633474e-02,-2.643301085998030903e-02,1.082987944215593606e-01,9.057373187956764549e-02,9.516561652272359506e-02,-5.042379802729300003e-02,-3.533550783506021059e-02,-2.732773505944574577e-02,1.150255396243931999e-01,1.154990416889869198e-01,2.299926820474787470e-02,-2.494813725720188835e-01,-2.210670705371015066e-01,-1.152468591910942447e-01,2.279947574854567505e-01,1.186300131110071820e-01,-1.918838975275852232e-02,1.624206823120102200e-02,1.464973524389309445e-01,2.283805975338600858e-01,-1.053639206219376262e-01,-1.887704060921050198e-01,-1.453012061715142633e-01,6.765619588651954064e-02,9.922242984477024075e-02,6.134227155369315065e-02,-8.920726235724697750e-02,-6.008944520017090590e-02,-1.767682144563368501e-02,6.548647088845699349e-02,2.169790373488858504e-02,-1.377308680600703925e-02,1.276271665228687416e-02,3.220849585420493266e-02,5.486381001473958352e-02,-2.374066189261301446e-02,-3.236143355474888766e-02,-6.990795417079154195e-02
-1.201216490878729948e+00,-1.170869702347372643e+00,-9.887809907916118579e-01,1.516288883155643419e-01,1.398690292944262947e-01,2.343417667962164816e-02,2.979031928609674005e-03,7.275423874661243739e-02,9.676980354007312657e-02,2.084051658718531763e-02,-1.122714875935113266e-01,-1.988263972168771432e-01,2.834588370938698892e-02,6.394436756094097618e-02,7.984983390758433608e-02,-1.931166027350472714e-02,-6.121083535232434364e-04,-3.656257073885211747e-03,-2.137150450919497388e-02,-4.978720838966618073e-02,-4.671543430139687980e-02,8.616572733660310315e-04,1.017979816722490438e-02,-1.660539322132304277e-02,-3.253456407797284539e-02,-2.655101028570925129e-02,1.253411879537504959e-03,5.823196128491468088e-02,4.328249859453300874e-02,-6.711868601339212974e-03,2.311992654559835020e-02,5.904540966806808011e-02,8.090433100971528013e-02,-3.543142899257958195e-02,-3.923549464937792913e-02,2.641824493591284073e-02,7.286858604261776950e-02,2.294636108002968619e-02,-1.100596057750238832e-01,-6.312365514358615065e-03,-3.896633641302357787e-02,-3.441831453743746799e-02,-5.997563063238983694e-02,4.627792043502261532e-02,1.238574056794883027e-01,1.741794732330616269e-02,-1.987908140929376191e-02,-2.662786581215922238e-02
-8.707462573183212262e-01,-8.113277994418993666e-01,-7.477261665222212361e-01,-1.160898251699937211e-01,-1.023049577492030626e-01,-9.911420032750080378e-02,1.437564214493117568e-02,-5.486870697037500577e-02,-9.398805272422419699e-02,-1.540298598674551822e-01,-1.202660995094406854e-01,-7.711851928805253664e-02,4.394618190625380200e-02,6.239836962360753060e-03,-2.389503556555518451e-02,3.307546568136569831e-02,3.372198190605570772e-02,2.267578601977049413e-02,2.787708617115897299e-03,3.524487960741356368e-02,6.963111874110686217e-02,-1.278541864708085951e-01,-2.041424577642863281e-01,-2.611613941706140141e-01,1.149006995492294209e-01,1.078978518855783081e-01,9.144552691467754124e-02,9.057278015943180660e-02,1.024591751915157056e-01,4.434908244148561690e-02,2.632232268380535478e-02,2.285129235240431975e-02,5.754419476131567013e-02,-6.087202300943195254e-02,-5.449685308297544384e-02,-6.928174264508746294e-02,-2.256285211943133071e-02,8.475361523725008506e-03,3.585797494823724646e-02,7.001113270171821501e-02,5.828004822887916138e-03,-4.540599095671225827e-02,-1.979449852744063001e-02,4.248054429873093785e-02,5.858372978763709549e-02,-2.396176192029425209e-02,-1.771455161971629416e-02,3.768819106050202289e-02
-9.935400816428846538e-01,-9.651483195618818511e-01,-8.277634440155388074e-01,-2.884985500852788997e-03,-1.449540309344670395e-02,-8.352274304817307315e-02,-2.933707806195022180e-02,1.371361442571247292e-02,1.431487706644902526e-02,3.168802785221171842e-02,-2.093255887374253360e-02,-5.932114273417814047e-03,3.757223323436446535e-03,-1.718294930784320176e-02,-9.023708143335003318e-02,-1.585882602830651633e-02,-1.151645666241871147e-02,3.469892743806633761e-02,2.472298949246079861e-02,-8.148428174099937252e-04,-7.306026772834836591e-02,-7.708107811874290172e-02,4.299411808128266940e-03,3.551866429156449317e-02,5.147418531288984467e-02,-2.144574618277071340e-02,-4.740733348320855939e-02,-8.438295918083569408e-03,3.386203944150694214e-03,3.419892437432233562e-02,7.866427136829577671e-02,1.176433052133460111e-01,8.820549522674699106e-02,-6.939384533758555240e-02,-7.684399928657617562e-02,-4.584195844864918934e-02,-1.610712249885744643e-02,-4.871612795280284847e-02,-3.929697202257724509e-02,7.935409943925459536e-03,5.950944959219107294e-02,5.185397983284947138e-02,1.167145128992951031e-02,-3.355842253650999363e-02,-3.530422613628948075e-02,2.796316357145983006e-03,1.216289595068771601e-02,-1.037237231184851699e-02
-1.153851898782891849e+00,-1.073941003595355603e+00,-8.832084996517552966e-01,8.010581391659020445e-02,-1.870775450544144916e-02,-1.359133971113309081e-01,2.203558930509574160e-02,5.393917020731803236e-02,-4.099651097095680617e-03,2.090118040579854244e-02,2.582997045083749998e-02,3.513588566186715001e-02,-5.327419743710581218e-02,-9.438261606379198809e-02,-9.114309519370973611e-02,9.932103023956112553e-02,1.538090761354832525e-01,1.537901308814821344e-01,7.647770908670036005e-02,-7.372262949107583410e-03,-1.007087884461769639e-01,-1.947178758627000905e-01,-1.716304677154958935e-01,-5.909517769000477427e-02,1.225434413703119507e-01,1.569291121307632153e-01,4.905477354907732818e-02,-2.109961503001035396e-02,-5.863736028183202942e-02,-1.536800511081766463e-02,-8.076716363606090132e-02,-3.907927578296410687e-02,-3.123698719072070737e-02,1.853886254198209432e-02,5.483909770854474702e-02,1.470709451907436516e-01,4.979099883778941721e-02,6.348674789976453507e-03,-1.037052019860594254e-01,5.365878334549712726e-03,-6.397941697807042923e-03,5.562907300738974270e-02,2.836404664374532480e-02,4.531966777525731765e-02,-4.917662349812964781e-03,-1.947874170791829077e-02,-2.665702253169258823e-02,-1.115928465130042527e-02
-1.123874941014546769e+00,-1.056450146298620218e+00,-9.211923341184850011e-01,9.250796798803899434e-02,2.516165476054369951e-02,-4.290689279071039502e-02,-3.748428805011984333e-02,-2.685990922340683595e-02,-1.646246173393857079e-02,-3.998015228041638253e-02,-3.761958700321265531e-02,-6.798462043860904747e-02,1.011193784283608843e-01,7.716151769047416287e-02,6.639969425517731894e-02,3.802768250160213064e-03,-1.505349149108975611e-03,-3.263763151665122209e-02,4.940177105017205111e-02,8.684304917076540731e-02,6.296645201214898235e-02,-8.678787434972431991e-02,-1.410724486079695805e-01,-1.771840002620803656e-01,3.961189974937113188e-03,3.644760022823925055e-02,6.746898328262836142e-02,7.990717844083854507e-03,1.262803886782065850e-02,3.863243348515129488e-02,7.141104838455605841e-02,3.886568995280759165e-02,-1.144750089501793237e-02,-7.559756761097984057e-03,1.876082198865947417e-02,3.331012843019343084e-02,-5.786187561845062416e-02,-2.917345117363826998e-02,3.011246673289105433e-03,6.280831515457475922e-02,1.456934647762613694e-02,-9.330862974528954593e-03,-4.244327759037249542e-02,-3.960029181915410146e-02,-6.272827838971917896e-04,3.089933171938447857e-03,2.193011918654561368e-02,8.048086529181028292e-03
-9.423856033288607881e-01,-8.884899813194447882e-01,-8.445712816291723879e-01,-8.509688058795514265e-02,-8.509856228990170246e-02,-8.674482831532297211e-02,4.537276692210701762e-04,-4.173648984132235368e-02,-9.149340992413997065e-02,-7.043986602625884608e-02,-7.464450425816489265e-02,-1.016077339206421654e-01,-2.928496368699862532e-02,-3.847964665437225706e-02,5.302638525096883132e-02,1.272317953381673084e-01,1.130237179465352071e-01,-1.765839968502036159e-02,2.175412318608817286e-02,3.034638551526822395e-02,4.952098356845036770e-02,-1.242271098118437750e-01,-1.356355844957560786e-01,-9.111728767764683268e-02,-2.587894552797975062e-02,-9.041623208416138882e-03,-9.479042633917043881e-03,9.079859441815647803e-02,9.971219056525627844e-02,7.769598907599606363e-02,-1.938469664868038358e-02,-3.309372587477342476e-02,2.882092762924149537e-02,-1.426174502905017405e-01,-8.434218529996355407e-02,-1.533390898790858506e-03,1.657317211059210482e-01,9.709911953959381170e-02,-2.236051236921339849e-02,7.060665237502063152e-02,7.923966729877571225e-02,1.111507572347600198e-01,-1.425807763154703089e-02,-5.114747053481467909e-02,-1.080294980985500169e-01,-2.278098783606639574e-02,2.246201119623079945e-02,5.451030743664562334e-02
-1.118289812637120129e+00,-1.108210377605943320e+00,-1.042155979214312245e+00,-3.489872604460038386e-02,-3.754638446228962881e-04,5.703421787021273337e-02,1.441328966937656109e-01,1.021845094156420553e-01,-2.552018281611277348e-02,-4.908204410337837359e-02,-3.569616467382308311e-02,5.089770721300587719e-02,9.407198949745787520e-02,9.694504145398508133e-02,-5.775051589287646947e-02,-6.076573097042737431e-02,-1.251107898463287571e-01,-3.292655357825972906e-02,5.061508530022333641e-02,1.105688567986797960e-01,1.083321381094384389e-01,-5.496658476037302732e-02,-7.992349845236693118e-02,-8.224140700361103062e-02,1.633947824419502634e-02,3.449071661239946907e-02,3.091713597282007286e-02,-1.103992627305567381e-01,-1.057315339921689884e-01,-6.337492629322225013e-02,7.989391744506889326e-02,6.704796818107418288e-02,3.103902125839460777e-02,8.868139202357075423e-02,1.159112881640734088e-01,9.080083938998328996e-02,-1.570094874111213623e-01,-1.911624228108269874e-01,-1.184703736354430353e-01,1.524094526365668278e-01,1.454556914596831507e-01,7.114718885573728668e-02,-1.548410602599027339e-02,1.530416275500980430e-02,4.564001956907225155e-02,-2.477304376938343350e-02,-4.132822160536385458e-02,-6.313092279074250524e-02
-1.029092558846981031e+00,-1.002391345768727238e+00,-8.801995168651213231e-01,1.261139859892963615e-02,2.144191597608630789e-02,-8.364457575542551260e-02,8.506493810108688852e-03,-2.563443778290552463e-02,2.057062333876934039e-03,4.551634418828538753e-02,2.868510220819409443e-02,-2.567525131626710588e-02,-9.439895418358728099e-03,9.683211331227648336e-03,5.147034584403541169e-02,5.655989788139108299e-02,1.762633601579724485e-02,-6.096136781007761851e-02,-7.838597444259877423e-02,-5.976105699052180337e-02,-3.333993336127765578e-02,-6.799714666148248821e-02,-5.412299485116080916e-02,-5.253529812513953179e-02,5.030346272161361626e-02,3.063123098698777511e-02,8.448867503106242960e-02,-4.422822726346108818e-02,-2.181624777524345665e-02,-5.321025735799279205e-02,5.094954302081069336e-02,5.944581258446434563e-02,2.835120367709333122e-02,2.513152747030877876e-02,-2.569703313557714780e-02,-1.336303206814442278e-02,1.121767314491602108e-02,3.128345399247122599e-02,3.218099210324931736e-02,-2.428697688544014660e-02,4.329064136267893326e-03,-1.006409386501498984e-03,-3.212711253941155642e-02,-6.587886466167430788e-02,-4.129517921808421171e-02,2.490501991407120808e-02,5.231703109049446604e-02,4.681717941495450175e-02
-1.488087048764626719e+00,-1.410138174731201843e+00,-1.149495731174479340e+00,5.739730112895795600e-01,4.708071901126764103e-01,2.259258275156793561e-01,-1.927929700675361513e-01,-1.864300705625615839e-01,-1.685720999062664816e-01,1.070810409301606592e-01,1.215449705989343626e-01,6.280594092399878481e-02,3.098184573389122995e-02,1.372486999072180906e-02,-9.186531980709941592e-03,-3.020112140597913317e-02,-5.210098498846395948e-02,-5.271802259986548000e-02,8.371591477335956627e-03,6.294996929677003361e-02,6.295448289405283782e-02,-5.692516919496346667e-02,-4.019109321137349228e-02,-3.481916418011506836e-02,3.987586768992550101e-02,-2.644744911617481070e-02,2.245360375141586262e-02,1.449143533979072376e-02,8.528020165830285659e-02,5.947643736217622656e-02,-1.879430895051602268e-02,-4.015839881651799698e-02,3.063797561268656600e-02,-2.269773169017819461e-02,-5.989972360245790495e-02,-9.232765729306902092e-02,2.062642669488654740e-02,7.196962158791271602e-02,4.602788801113297246e-02,3.060526832419146331e-02,-2.173428351830049288e-02,-1.911665115868051157e-02,2.198038074628549249e-03,1.148948074094657650e-02,1.977775215631077943e-02,-1.851367791980428404e-02,-4.995872909518324096e-04,-3.697975264755336625e-03
-1.073311587183628735e+00,-1.029169802765186104e+00,-9.213903518818271632e-01,5.688641749775954354e-02,1.661094306990270469e-02,-4.878943917143234443e-02,-5.648774849036557189e-02,-5.914623641473242682e-02,-3.911977495959768208e-02,2.437762389433424312e-02,2.950153038896513244e-03,-4.755477588609351852e-02,-2.568800835620830419e-02,3.320334316817145914e-02,1.053339679069679596e-01,2.434929394952020307e-02,1.219643825849272764e-02,-4.023960155172066899e-02,3.181414639501820019e-02,1.029520291639176958e-02,1.013293372896205066e-02,9.070191209309436120e-02,6.826328690084568218e-02,-2.304676825941684437e-02,-7.646270208871279797e-03,8.474667053763380864e-03,5.009514588010952063e-02,-2.075045922311841498e-02,-7.083522073122106022e-02,-9.863226066528470171e-02,-6.765107278654189371e-03,4.139277984368357893e-02,6.969906811729570384e-02,-3.390877881569550473e-02,-3.427689410484460047e-02,-1.952931962854315140e-02,-3.884459951750605239e-02,-5.360728581874887183e-02,-8.255182187145967965e-02,7.809403396245544193e-02,7.500171573019920324e-02,8.947298663524999585e-02,-1.190543128602422895e-01,-1.383165241324441908e-01,-1.835741915805212954e-01,7.644100252134607143e-02,1.171647567140276791e-01,1.798737548609252723e-01
-9.715392081308013017e-01,-9.407471617847196210e-01,-8.538112794462412447e-01,7.601852993844172846e-02,8.860695673354439250e-02,6.715370723839374223e-02,-1.140161557751683957e-01,-7.965548903836139338e-02,-3.831364812957169935e-02,-3.886077585348041152e-02,-1.357760649468554570e-01,-1.700338421226495200e-01,6.966363416667424591e-02,1.250261638961951138e-01,1.126151339874027629e-01,-1.283921274292053327e-01,-1.272792602701715847e-01,-5.994358053982140611e-02,5.761414435756792574e-02,-8.239444922608316416e-03,-1.286413870415990535e-01,7.272195538462443432e-02,1.020646449067132283e-01,9.872641177769611587e-02,-2.733230433496276063e-02,-2.378109471834792543e-02,6.770286926330010280e-02,1.722175082081726927e-02,1.225833752598579117e-03,-1.084836098702746249e-01,2.191426167498316743e-02,2.840418179737286622e-02,7.007854826555222350e-02,-5.728062726170785740e-02,-5.606328195908235473e-02,-3.173969745011425564e-02,-2.959017125919597910e-02,-4.009550844299474698e-03,-5.186427310185554029e-02,7.480234725993568923e-02,4.512811769549709973e-02,8.506063841767554090e-02,1.624445523571566713e-02,2.434570602519010862e-03,-3.821859730934750593e-02,-3.894228671310389495e-02,-1.714724906860112807e-02,-2.019614630597151017e-02
-1.118465875835510159e+00,-1.116587729365024817e+00,-1.030857509087060642e+00,6.258396789022192819e-02,2.996072594410485040e-02,-8.044895373103782069e-03,7.078419320108256252e-02,1.339688239191571262e-01,7.640608283744022844e-02,-2.047794470826218641e-03,-3.763230564805240125e-02,-2.999128279538185518e-02,-7.547208587415202286e-02,-8.737888845338066812e-02,-7.517228083541260819e-02,1.100030123715607516e-01,1.223991687939695178e-01,7.936890054230889835e-02,-2.362412829956128668e-02,4.424721053437974047e-03,4.355338043063474579e-02,-1.619141936162991902e-01,-1.982654421375879827e-01,-1.391527927164411538e-01,1.162320346353215156e-01,1.311289273374164899e-01,8.382919983519311613e-02,-4.746836108177347746e-02,-1.231098276899755123e-02,-4.521338395908582053e-02,1.012669708128410007e-01,3.956336379814284765e-02,7.402586117049990422e-02,-1.096514826465918580e-01,-7.560717779696041196e-02,-4.264967054491154708e-02,5.550823798812089954e-02,7.566476660737124493e-02,1.447295748939144040e-02,-4.960424650931737067e-02,-1.391579068625822257e-01,-1.409390010616594358e-01,5.045645352897518143e-03,6.746058688218775634e-02,8.668076147576639356e-02,6.709468908162327661e-02,6.259341825304612361e-02,5.383925990297005332e-02
-1.073798605086855984e+00,-1.054246105272583112e+00,-1.000367029562081900e+00,-9.704659926877533260e-02,-1.046741599542437423e-01,3.732865562454858871e-02,1.937104471467522571e-02,-7.022823176286695224e-02,-2.470926376899986177e-01,-1.092816556628001534e-01,8.075859223749197457e-03,1.741355160165884153e-01,3.988580121659959232e-01,4.275969407402755995e-01,1.151228422037330751e-01,-1.002105026561290746e-01,-1.534980872597641322e-01,-2.302686846407318334e-03,-3.688349052007347528e-02,-8.387278323598475194e-02,-1.932010532607871534e-01,9.242871075715300075e-03,1.984888548334458672e-02,4.900646313198449983e-02,-6.379526483970811290e-02,-8.097881479199882382e-02,3.836902456399449157e-02,-1.149317578621968927e-01,-1.003495467772435590e-01,-1.011707886299671871e-01,1.920104821280325391e-01,1.871912737374676061e-01,4.587366877431599960e-02,-6.580877669163297250e-02,3.380568901915382424e-02,9.413664550438560763e-02,4.598760055941281122e-02,-1.014171698708009328e-02,-5.729876087622209901e-02,9.983878178021764194e-02,3.742676571412836828e-02,1.368242097913517294e-02,-1.008306416435750114e-01,-5.516130708178192121e-02,1.016731265721567412e-01,-2.316190682111874451e-03,-5.054625306268278840e-04,-6.774116371566288319e-02
-1.217583024854051121e+00,-1.160390826038250944e+00,-1.023079732091607852e+00,2.506661786375038448e-01,1.811670690376346871e-01,5.304651263947927908e-02,-1.211631885113333279e-01,-9.017506586037210559e-02,-5.051615248539242237e-02,7.996721608870456521e-02,9.056973204296644986e-02,7.901998150657693620e-02,-2.467729776155924704e-02,-5.380489078296411820e-02,-8.274823117158150443e-02,-6.933703074278230183e-02,-7.592133761535949099e-02,-3.278514231618563646e-02,1.740802052878787642e-01,1.662878127045233634e-01,8.484758054258721705e-02,-1.317039527730616555e-01,-5.386514913540391830e-02,4.277017514059380798e-02,2.352947668030291872e-02,-1.046544484118373392e-01,-2.315892796889688909e-01,3.483654178150245168e-02,7.433227289125010628e-02,1.020882323262757435e-01,2.036568759571319442e-02,4.527080775568644022e-02,7.931563736302960077e-02,-1.214953239012397717e-03,8.137599965115233092e-03,-4.198963189361674259e-02,-2.732316455315407511e-02,-8.107538213471422034e-03,7.215576817036728485e-02,5.179783244462007885e-02,-1.466877869304102772e-02,-7.426126331162076488e-02,-2.443047870663857951e-02,3.077571199438000615e-02,8.545837847685543165e-02,-1.762204999331230121e-02,-3.480087271904223206e-02,-6.162329790322407241e-02
-1.107041188767395212e+00,-1.088814403091039162e+00,-1.003409487812696899e+00,2.082912453133949765e-02,5.160740616091482463e-02,7.607907341654783495e-02,2.009524017552616684e-02,-9.705161308238141951e-03,-4.941415170241447719e-02,3.118412384938395315e-02,3.452267215357686294e-03,-9.290576429365927924e-02,3.906637736559141760e-02,1.307007261475224072e-03,3.233447736402990380e-02,-7.997231179553150604e-02,-2.229036776079346485e-02,2.670988106796800404e-02,2.978724084003945075e-02,2.510191741830869027e-03,-4.512657321908866703e-02,1.151583460480659626e-02,-6.435540915480847390e-03,-1.139996619141949233e-02,3.841707302354183812e-02,7.114318821078589872e-02,7.973719508094620489e-02,-3.453881785098783519e-02,-3.783456002142031316e-02,-4.726531756601793505e-02,7.498810711281432562e-02,8.768979012611517743e-02,7.708050344326486392e-02,-2.552461423385661565e-02,-4.914471341337205840e-02,-4.853743810059972519e-02,-1.324303387496614422e-02,1.361819973768635048e-02,2.897326768684439086e-02,-7.874516687394977552e-03,-1.615833854756131352e-02,-1.556374179279159525e-02,1.079333361401680486e-02,8.818578727865926045e-03,3.808376366146659468e-03,-8.252020124899691819e-03,-9.571939245560866574e-03,-1.098008986239149172e-02
-1.288167008558231741e+00,-1.192183150955997029e+00,-9.109913695232350062e-01,1.656069402593994822e-01,4.993542551552090578e-03,-1.431894045033423324e-01,1.180862347489421427e-01,2.542886182872493017e-01,1.135354615438811526e-01,-1.014000778852235662e-01,-1.467576843650242879e-01,-9.791499858227263597e-02,1.533590808778361736e-01,7.704381409353452947e-02,-3.601112628999748183e-02,-8.120528257938007879e-03,6.090985371057918568e-02,7.299178872801331819e-02,1.844423423459659248e-03,-1.074703901081517921e-01,-9.871342443821352897e-02,-9.656322125263683276e-02,-1.163404191999153382e-02,-4.818258423953857006e-02,1.921362261451479633e-02,5.399540448532172410e-02,9.632741365505013975e-02,1.529847785307971580e-02,-2.974104174134771517e-02,8.545124532853566601e-02,-2.767912712147311410e-02,2.153235852290096008e-02,-3.521254161894755291e-02,-3.383303641754697999e-02,-2.736742588997445949e-02,1.939538047751985378e-02,5.344283627878591847e-02,8.482494581095836525e-03,-3.144229351577670917e-02,7.399818383712712666e-02,4.362837837554612436e-02,2.707645723556757755e-02,-1.212257778743797837e-02,-3.846208475397743139e-03,8.581645674410802102e-03,-3.277670374756742888e-02,-5.731477144296382581e-03,-2.161296064384277474e-02
-9.898883624032048800e-01,-9.531850231407612561e-01,-9.288396481385838843e-01,-4.604354255848511213e-02,-2.137450304615498911e-02,4.634544202319921397e-02,6.957203535613888656e-02,5.089186949608232730e-02,5.424460593871915925e-03,-1.390525794904184098e-01,-1.370066771366345026e-01,-8.226612758899876088e-02,8.940922571245943362e-02,3.207249095960947038e-02,-5.017148007233744600e-02,1.825493958426398656e-03,-6.972702124025490292e-03,-8.231614994066056845e-03,2.167661961253127337e-02,4.800906120959643093e-03,-2.594758439133526204e-02,-1.123871589737169413e-01,-5.544567177394530560e-02,4.320463386098158734e-03,1.061279296005365608e-01,3.778544558319421598e-02,-4.273671748441613266e-02,1.865410242118921078e-02,3.822947903114203710e-02,5.398686961945600715e-02,2.055079093996357506e-02,-2.249481884579966270e-02,-5.151961027671576876e-02,-1.058872117828910109e-01,-5.614892817325090740e-02,-1.617813491951579016e-02,6.393593685947944472e-02,8.043566020291477436e-02,8.551604028232424881e-02,7.301271349391071086e-02,3.693963600906374767e-02,1.014590842622522908e-02,-7.833298881017050630e-02,-4.227436110818411780e-02,-3.769993083799502709e-02,6.891448017293629741e-03,1.381153923157489583e-02,3.790683172718017219e-02
-1.160252094427409286e+00,-1.100703000730269832e+00,-9.608577515124406832e-01,1.326061281747870635e-01,8.441989360254417707e-02,3.076018456342637965e-03,7.115855054165612370e-02,3.533087585402912290e-02,-4.505095313562600123e-02,-7.379722732634175220e-02,-5.350549958882277329e-02,-1.808137278674317588e-02,-2.456420092903933983e-02,1.748612834204560720e-02,4.491782544849205056e-02,5.880181303159588702e-02,3.751742095751452871e-02,4.366477511191552141e-02,4.941697157062258268e-03,-3.171829921609409242e-02,-9.488452325227809958e-02,-2.244106775048068311e-02,4.004193377135703276e-04,-1.615102453826321866e-02,-2.510811662434637645e-02,-3.708243422271922246e-02,-1.614250857342205622e-02,3.542331975551313294e-02,3.046370858456802500e-02,3.763115014636473493e-02,-9.662185597087162917e-03,-1.599143598950633974e-02,-1.725087495048225131e-02,-8.340806892558293162e-02,-4.069107945230847345e-02,-8.284840304274454503e-03,1.502672176027332884e-01,1.153234180341270038e-01,5.109130912208808412e-02,-1.206444377032425685e-01,-1.357042881715030958e-01,-8.958868457440145872e-02,6.335047295454712679e-02,1.000262683525842272e-01,1.112627539114778297e-01,3.516206509936998896e-03,-5.414620369562525744e-03,-2.525204628445611166e-02
-1.219682607205897273e+00,-1.173594174105896615e+00,-1.039254783637744373e+00,1.480281475553594517e-01,9.399214205258436816e-02,1.029681673928745655e-01,4.925738176076407265e-02,1.247772916441317742e-01,-1.136580416126024146e-03,-4.501603677894048389e-02,-9.569273967039547413e-02,-6.686634564111505752e-02,6.582436096310224916e-02,4.219848966904843346e-02,6.563174336122062913e-02,1.950667471436133560e-02,-3.244607153247074799e-03,-9.759072556720170544e-02,-2.848082157076864407e-02,7.402341706560641721e-02,6.100317284739746604e-02,-1.459072701139263462e-01,-2.184973572156573285e-01,-1.486440013349630829e-01,8.548299682606515237e-02,-2.874769295052737560e-03,-3.755234991978689818e-02,1.080388919224474914e-01,1.844052579983703199e-01,9.496016398069925812e-02,5.497138264986679672e-03,-6.546533923400942034e-02,-2.649720372670417989e-02,-9.747056101494518121e-02,3.621388034794879862e-02,8.455727879094411537e-02,6.360164366550949064e-03,5.338370853954098327e-02,5.682686708705447787e-02,1.311017073832644597e-01,2.428806688619856297e-02,-3.723698868681001375e-03,-4.156122618848250710e-02,-1.630399019601465327e-01,-1.710429800173672854e-01,-4.087267925818480890e-02,8.921279886362082356e-02,1.264334798535636240e-01
-1.101959106659482490e+00,-1.056448831209100048e+00,-9.910656722509737504e-01,-9.870680492064261291e-02,-1.455486466306459004e-01,-1.608098435702049744e-01,3.107551167096079814e-01,3.187985368271857300e-01,2.783850614531412360e-01,-1.273529763668497794e-01,-1.220983894189078545e-01,-1.266974358591262118e-01,4.730708763237662096e-02,5.233276500079993288e-02,4.520692225693560135e-02,-3.101164015605010343e-02,-3.703391519432008838e-02,3.442369607082957500e-02,3.120587333552494666e-02,3.615926433236788667e-02,-2.719878072308612102e-02,-1.416881624448605437e-01,-1.783954844387137251e-01,-2.069126884667112920e-01,4.749337947767172385e-02,5.935709337528907031e-02,9.064700734521205505e-02,2.018116442684695644e-01,1.987285349816097502e-01,1.332162533845061003e-01,-2.377918458590269346e-01,-1.973903521232657776e-01,-5.854169297394500732e-02,2.314604701813778934e-02,-1.563485965379644588e-03,-6.735783160044458984e-02,4.058487253862721328e-02,3.429108315910586041e-02,-2.034266084782846568e-02,-2.598036345899806809e-03,-1.393023575607326564e-02,-7.956796785650119969e-03,4.367354610780112972e-02,4.178939118228250371e-02,6.754158758828994469e-02,-4.688939998393450853e-03,1.110188103549368359e-02,1.757150590591571512e-02
-1.078616616948007367e+00,-1.022273538827973116e+00,-8.808821697761510805e-01,6.512527787855529326e-02,2.557500077802755262e-02,-9.146091395250016687e-02,-3.948334704268032652e-02,-2.746988996218165113e-02,-1.896440259201903535e-03,-8.415412593930332585e-02,-1.422880429117783785e-01,-1.866541627234185874e-01,1.582165274052813875e-01,1.843400803110363528e-01,1.380644111103108140e-01,-3.612758894560594986e-02,1.273601280225216585e-03,6.814466760619501684e-02,4.257414481469622841e-02,-3.212223615502630969e-02,-9.066119827991366009e-02,-1.168186155326908782e-01,-5.869177490072604447e-02,-1.436274559700410555e-02,6.973354496312528239e-02,3.671320307758469542e-02,-4.525422450085302660e-03,-3.762878119084038520e-02,-2.634134704274956884e-02,1.459130623978559423e-02,2.695463323856088500e-02,2.496921394838138783e-02,1.404010531333749895e-02,-5.557190540489762715e-02,5.776107800033025014e-03,2.569660927707075396e-02,4.224214465785211536e-02,-9.135140811103028419e-03,7.689264046175010338e-03,1.039105436305751279e-01,9.755378350318615055e-02,2.912300987508983918e-02,-5.312268092044485079e-02,-6.399877340709357598e-02,-1.962232353661785833e-02,-7.020554832894406252e-03,6.290586134074120650e-03,-7.169749249872596139e-03
-9.353374377417936758e-01,-9.401794879414532291e-01,-9.483455601212340547e-01,-1.821065365812436429e-02,1.068260782437160938e-02,5.842975809216669619e-02,-1.062375521721677929e-01,-9.996105585782059932e-02,-8.804636363007721511e-02,1.083440163368956308e-02,1.719670563975235489e-02,5.837166886301959311e-03,6.517978267347807053e-02,3.874204335658678472e-02,1.862006523515205916e-02,4.086540035165876078e-02,3.558265675659379179e-02,2.854718124724768546e-02,-3.803310735871440890e-02,-3.569967946322181312e-02,-3.360687114422622468e-02,1.754728100108989344e-02,3.142461686853305347e-02,4.541946745051763518e-02,-5.335489372276102510e-02,-7.109546803628742639e-02,-8.671877051447801632e-02,2.720317873144891679e-02,4.492438230188708359e-02,5.241398125862304497e-02,-1.495905542087856352e-02,-2.798340379041484166e-02,-3.978331542169772500e-02,3.052992729581147785e-02,2.564279310444348217e-02,5.136732020232562777e-03,-4.748901090867276714e-02,-4.327318069323672634e-02,-2.767421169476950993e-02,2.491536680782906188e-02,2.098696688317775241e-02,1.785025507782070364e-02,-3.455144410104736552e-02,-2.341671317495604490e-02,-3.102575804256255121e-04,3.121572452134788872e-02,1.651939231166332095e-02,-7.697873204168573583e-03
-1.006624704501774881e+00,-9.454721531735932327e-01,-8.623808798774511564e-01,-8.288990996710736414e-02,-9.523888227178509136e-02,-8.117183318288292981e-02,8.579705192736047578e-03,1.074238179377311544e-02,4.130017407759849213e-02,1.284831333586433921e-01,5.743638820596397299e-02,-4.789259385873811947e-02,-6.188753698509695533e-02,-5.504865293612452859e-02,-6.520125835554230198e-02,-3.690687807479794275e-02,-2.833361055307081350e-02,5.572228532932696488e-03,-1.571902359466401805e-02,1.654621666967579299e-02,1.782349753525023367e-02,4.462127202859555997e-02,-5.505481398559383850e-03,-6.684659725481305326e-02,-1.203659758201533654e-02,3.349255012742920201e-02,9.004896223569629210e-02,-1.444319273633098283e-02,-4.981441891877227274e-02,-6.366334076246386864e-02,1.282719548812850940e-01,1.109717282541668043e-01,3.809931006521455332e-02,-5.389658091322600819e-02,-3.478186071717578876e-02,-2.050030247288500002e-02,-6.083844024925835064e-02,-4.378523596935623291e-02,1.939885227738080004e-02,8.232923687162371773e-02,9.989634162446724142e-02,6.796415756569620936e-02,-1.505412230046342115e-02,-1.850434009500208365e-02,1.502962001716660195e-02,-3.183085430945011701e-02,-5.248962714954502617e-02,-8.752443969966788861e-02
-1.011807558652626060e+00,-9.302735787200278050e-01,-8.355068176484253817e-01,1.177986225682318630e-02,-6.496129955406022838e-02,-1.253538215869047234e-01,1.733580902449394917e-03,-1.986186433289830605e-02,-2.167696343698205519e-02,-1.316794292556899559e-01,-1.088951473369322992e-01,-1.067685100914696344e-01,1.329473207275737312e-01,1.137990708901790299e-01,7.947977650979176634e-02,-1.322288989494506961e-01,-1.582581530612019172e-01,-1.786348877368113264e-01,1.280194729497845796e-01,1.173127530610181130e-01,6.814790073416071570e-02,1.728387557820376327e-02,4.536260383060874285e-02,7.135538051799904247e-02,7.214132237423639959e-02,1.416089545322621324e-01,1.679652927352225100e-01,-7.327760192081853030e-02,-1.005252214986964987e-01,-6.613698955820518366e-02,-9.114451155760217027e-02,-1.117964189801173985e-01,-1.389678658656983146e-01,-4.405338395566378573e-02,-4.268834711817966893e-02,-1.138916668608433609e-02,1.442849107582263313e-01,1.768674601413180170e-01,1.564076939307009473e-01,1.110772552948515075e-02,-4.206435424536351941e-02,-8.221402114788151083e-02,-4.748469497121754479e-02,-4.446950098445731636e-02,8.860960574993272804e-03,1.255318301507242322e-02,2.900060250538534501e-02,1.453069177034277230e-02
-1.313287315411500789e+00,-1.113723884606267589e+00,-8.914116151313912217e-01,2.885887882811027927e-01,1.504142868990619719e-01,6.286366112791558214e-02,7.907514374184484995e-02,-3.975984652492638161e-02,-1.816230205473091386e-01,-1.092658494526126955e-01,-3.297147772804596977e-02,4.038973603611573093e-02,1.062452224058568623e-01,5.649036085264318857e-02,-4.192929266556091883e-02,-9.756285649911129731e-02,-3.716810779614932586e-02,1.556689569335515180e-02,-6.913496714817688425e-03,-8.058214206916772260e-02,-1.080893342545896640e-01,1.485878625879168136e-02,7.684340679010920327e-02,3.492991329736915701e-02,8.116353041586912842e-02,-3.986213272517957762e-02,-9.641495435930634572e-02,-8.957663297096038132e-03,6.346724605132887664e-02,7.073860714803886784e-02,3.067176486164456886e-02,3.705938089539174279e-02,8.643922609353298092e-02,-2.285912022415294564e-01,-1.625778162946908967e-01,-5.312057637958655931e-02,1.051206355594606207e-01,5.697083924285441248e-02,6.115562591809458812e-04,3.301180186786217829e-02,3.322430986682354398e-02,8.738719723097251868e-02,3.315785204213166082e-02,1.263124838118166726e-02,-2.022424934364334265e-02,-7.149220613304341741e-03,1.973042011357160203e-02,-5.916401231526168848e-03
-1.463099544005800112e+00,-1.370443632320228922e+00,-1.134875063603963286e+00,5.112205905398832240e-01,3.648370663713825790e-01,1.602791162386279500e-01,-8.040263996596243301e-02,-9.465586425660255099e-02,-1.855463575985263902e-01,-6.712554725650943244e-02,6.786944614676002421e-03,8.583404777041007960e-02,1.365012576496461294e-01,1.952590204067711221e-01,1.520310674764691339e-01,-9.163874407937917799e-02,-1.865772861336591204e-01,-7.198278802069711657e-02,1.247916935836468205e-01,9.124920242617111377e-02,-6.186103166960549987e-02,-1.912895718609006757e-01,-4.033496857868208024e-02,5.281702661613296018e-02,1.439718226240488674e-01,2.405328461197349388e-02,-1.193723794729478933e-02,-3.280970745547023837e-02,8.661726891264318051e-02,1.296658925307626886e-01,-6.867314835263338413e-02,-1.614055329889344803e-01,-8.977875740020001272e-02,-3.441027670136286454e-03,1.772121443424284210e-02,-1.807222048047816762e-02,4.294335460914258662e-02,6.399216259140774049e-03,-5.781204707884275013e-02,9.394379811438752226e-02,1.365360981261613260e-01,8.407441573740551122e-02,-4.792638099126608764e-02,-9.212635891068764182e-02,-4.746538469910788899e-02,-6.689071469636912251e-03,1.626026636741949652e-02,1.470731265616498536e-02
-1.518773479749489397e+00,-1.377483450132893417e+00,-1.133918286864767477e+00,5.278765857526235283e-01,2.947768767389587485e-01,9.032883032517058375e-02,-6.198536105257076989e-02,2.807263483053204847e-02,-2.360791277709599345e-02,-1.537094597349984160e-01,-5.805675704510618318e-02,3.066391943873133727e-02,2.943255164338532959e-01,1.290807636571152661e-01,-2.811298937296335607e-02,-4.903601703591278782e-02,-3.529641897935025668e-02,1.874280478178388248e-02,-2.321921142476297481e-02,-4.225910227099004789e-03,1.120298152154694526e-02,-1.289779020204276094e-01,9.110850011200568449e-03,5.816773487365085871e-02,2.217421918650729351e-01,6.392336984017603363e-02,-3.990291901799626617e-02,-1.483549399460730722e-01,-5.224305375283067737e-02,8.179656983904480885e-03,8.462925351550160125e-03,-1.059721788272062004e-03,3.984950883714442199e-02,4.215060403342013075e-03,-5.608595875283651361e-02,-4.498479536179407490e-02,-3.165886105293175962e-02,-7.329951392770923946e-02,-7.873609790011146248e-02,1.073493731623637870e-01,1.995009098469027464e-01,1.199889563293222716e-01,-8.650641353047761051e-02,-6.825446310125694860e-02,8.161228088000987979e-04,3.859065674559208209e-02,1.817696939001371388e-03,-2.850649024321778857e-02
-1.344633306831332975e+00,-1.332654334759376891e+00,-1.238698858693877636e+00,3.464001050569207041e-01,3.556090326080703634e-01,3.132199471581028627e-01,8.037196660928688785e-02,5.152509107171995145e-02,-2.953062884571876559e-02,-2.009583789071077708e-01,-2.068974261415212346e-01,-9.240192614100288526e-02,8.146845690218512681e-02,1.179676778142276783e-01,9.896690445958023635e-03,8.379749778309536490e-02,4.837531080235463188e-02,4.714328359077114144e-02,1.917143474176208340e-02,2.109068345087806648e-02,3.269177110748214266e-02,-1.217040386687139319e-01,-1.049763614692197644e-01,-1.011113396090331101e-01,2.336682233189977392e-02,2.219495131316682069e-03,1.959661054340250397e-02,8.982966695832587944e-02,1.068073188873596424e-01,4.078311290905378694e-02,-5.467178363679030262e-02,-5.279718926159583658e-02,2.321813478937141337e-02,-8.257531345851187865e-02,-6.739581169486934253e-02,-6.193692535053689496e-02,1.038588954169514245e-01,6.400086614161711041e-02,2.317436499210854053e-02,1.644638990613697324e-02,1.691128635715468190e-03,-6.561747980665803837e-02,-3.565898795562486012e-02,1.480381726178539581e-02,6.643377189539650951e-02,-4.398945042701748846e-03,-1.929921001860799082e-02,1.319195952841411765e-02
-1.422976156462179897e+00,-1.221630829969631460e+00,-8.994947003907726168e-01,4.061737647900171000e-01,-5.825126901862101580e-02,-4.679253304121117618e-01,-1.995330674183230096e-02,3.423860762433683091e-01,3.831521068514697204e-01,-4.690262386187094706e-02,-1.367966405389365592e-01,-2.488717118993972674e-02,1.148786385193139165e-01,2.832359201412130989e-02,-1.207995908478262520e-01,-8.639057604221143938e-02,4.129397896197051915e-02,1.328190861822848845e-01,1.813710071836178161e-01,6.499024603300168623e-02,5.080589851015458736e-02,-2.946403947472179818e-01,-1.586577977836040321e-01,-1.424664631533104076e-01,1.942767080754461695e-01,1.003993755050299197e-01,1.296072547025248489e-01,3.689929520787345318e-02,9.300213717342845077e-02,5.965325964419344873e-02,-3.519790030746293430e-02,-6.702605604180580934e-02,-6.145147764650570055e-02,-1.058377025351484035e-01,-7.857195997046656499e-02,-1.949622376197761298e-02,1.749326053406382794e-02,2.083392543632201638e-02,-3.536206392832436790e-02,1.313804993707476665e-01,4.187708086398413826e-02,-2.602247581523717268e-02,-1.711341637605549859e-01,-8.569609153899021559e-02,6.294427575297453781e-03,1.007674688170986932e-01,7.369361447867907311e-02,3.568303713469341693e-02
-1.306742396233949277e+00,-1.229303369000068313e+00,-1.103000256192029127e+00,3.043985080283770905e-01,2.568024669614066835e-01,1.866351936918843601e-01,7.460892695968367183e-02,-3.812327396633816839e-02,-8.636357846965325713e-02,-1.539867396328302163e-01,-7.758156517056871704e-02,-5.802669687597148546e-02,1.294462263615683006e-01,8.213018348561629267e-02,3.779207396363224586e-02,-2.610246878201625750e-02,1.130609226839356801e-02,1.327001251077286267e-02,-1.323936941349957916e-02,9.117853432021680998e-03,-4.057850202633617176e-02,-5.731554889457186885e-02,-3.418223146139928725e-02,-3.120359443014858371e-03,3.282449810114673912e-03,-3.282402998201281591e-02,-1.620813933639461343e-02,3.510147475183195837e-02,2.475290963433450508e-02,1.508155294469114803e-02,2.712004862107797454e-02,6.693205118905742879e-02,1.121522419228442452e-01,2.040466237181072853e-03,-3.995405316979417504e-02,-3.636932186801187378e-02,-6.860468918564971430e-02,-2.900584923615835004e-02,-2.599384556115453410e-02,1.093315851144100598e-01,4.020221778986272920e-02,-1.432019168988396714e-02,-1.532958120427894699e-01,-1.053686329523220166e-01,-6.215238392836387737e-02,9.406944378492379522e-02,9.519244274030805308e-02,8.128238821330874275e-02
-1.318025636726501082e+00,-9.813432462756108698e-01,-7.798297287826361224e-01,3.107354107132308529e-01,-1.504399585160440533e-01,-2.040569810045867460e-01,2.973870599664069428e-02,1.096090260596007671e-01,-4.900863138458414967e-04,-1.198478327911533525e-01,1.811311507775646354e-02,5.485274925839107862e-02,4.385096434373972341e-02,-8.508287874443597187e-02,-1.018847283409159421e-01,8.398819998336257142e-02,1.436265984359178655e-02,-4.932497621213841749e-02,7.552352828116041042e-03,7.160049471343291061e-02,-2.876195854535965046e-02,-1.736582431273187843e-01,5.935083014101212584e-02,9.589745642835656447e-02,2.321529362979767031e-01,-1.410712070285691233e-01,-1.681197085840245575e-01,-1.342104933674778955e-01,9.912227749564989088e-03,8.243560792458311248e-02,-6.783637448462111197e-02,1.969563987958561010e-02,4.407210921290070221e-02,4.646274272416000412e-02,-5.955184140517225805e-02,-6.263177458836667599e-02,1.365118464165019372e-03,6.041862435168662143e-02,6.936024252099032283e-02,8.345524183099214954e-02,1.073404538896113869e-01,9.447783576582946541e-02,3.741167380434784473e-02,-6.234002939485999706e-02,-1.044491992479535669e-01,-6.297122953775918797e-02,9.603816229830785742e-03,5.863024342996813604e-02
-1.612715708246773572e+00,-1.580522476889600902e+00,-1.263703064151900923e+00,6.980063403532958954e-01,6.479408365119282420e-01,3.038544082810208935e-01,-1.266188080840053576e-01,-7.914452278543475383e-02,-4.541808782666716809e-02,3.675832752958066441e-02,-4.474790045574904285e-02,-1.195488391023275254e-01,7.735863469798698322e-02,9.081782036008287373e-02,4.214105236972116864e-02,-1.177286738685387746e-01,-3.683753521919172491e-02,1.060038475112898698e-01,1.197591650579685196e-01,2.386197476375629192e-02,-8.159349570935189866e-02,-1.998658677463601152e-01,-4.316733075003752890e-02,1.459377735912932017e-01,1.602855613074188612e-01,-6.577197129652383178e-02,-2.325729877604097162e-01,-5.399034156689783148e-02,1.453208622039037501e-01,2.384900528179678680e-01,5.824380918361076603e-02,-4.210827711454594863e-02,-1.653255193124778810e-01,-2.035725466641843603e-02,-6.360832285477770187e-02,4.424151814818966244e-02,-6.336197337550458775e-02,1.086470540405856389e-01,1.084712561371642542e-01,1.031839486176155812e-01,-7.267455440910412789e-02,-1.046884237438509835e-01,-6.692988414408351794e-02,3.245046128388761469e-02,7.361870607546011636e-02,8.175721142020545007e-03,-2.029565776269218538e-02,-4.981647343372991310e-02
-1.540607565658102196e+00,-1.554443640222529677e+00,-1.412451221229869880e+00,6.612334153771551870e-01,6.364063765646811310e-01,4.435922846382589491e-01,-2.683452429297151220e-01,-1.791899643807559617e-01,-8.907998160952350364e-02,8.982493847422959310e-02,4.072481169433220249e-02,-4.694282750936957724e-03,8.402401748388672875e-02,2.628156089639689316e-02,-1.177982911094128601e-02,-7.514858753197359298e-02,-1.133793172804934898e-02,6.756738051688229718e-02,1.010333875909630030e-01,6.824070259599633592e-02,-4.493265811247647984e-02,-1.168883523937164493e-01,-8.185302964160599826e-02,-1.519747408500089596e-02,6.572357750618942895e-02,9.942149601010087656e-02,1.480563254328764733e-01,8.778085987489418068e-03,-4.870815295724820193e-02,-8.086688197403736622e-02,4.395996769762590406e-02,6.261602830500151429e-02,2.697773906337732827e-02,-1.306673418742954895e-01,-1.481166342519674994e-01,-5.204027421973971695e-02,4.997727336363699119e-02,7.390361016457941412e-02,7.416984136582108200e-02,3.170743879538848176e-02,1.477084342778253734e-02,-1.312938872904891585e-01,1.305778853921787074e-02,3.269331930116597257e-02,1.017196662376462085e-01,-1.741821647603736603e-02,-3.121921267239831377e-02,-1.963572749250196148e-02
-1.421515878313687198e+00,-1.219293735842034154e+00,-9.804531657682439283e-01,4.295459473522202920e-01,1.751617129240661264e-01,2.659401290923291486e-02,1.161689408347386107e-03,4.674078910331089243e-02,-3.721918921434493044e-02,-7.691652525669086249e-02,-3.418763290495178270e-02,-3.344662933110824354e-02,1.652959826332555671e-01,2.248077078327944886e-02,-9.516167100274368351e-02,-1.364868426605695129e-01,-1.651166755751104845e-02,1.051132429688278191e-01,5.109839375656930610e-02,4.190059534973221422e-02,1.683296317036832648e-02,-1.096551658207896712e-01,-1.368192105335629960e-01,-7.791508454749254686e-02,1.169053166359616536e-01,1.418316806850762613e-01,7.659140081524497268e-02,-1.684030553952960835e-02,3.433870601266445638e-02,4.868354878316023815e-02,2.300205954089045227e-02,-8.125706417263109382e-02,-8.463959578792273897e-02,-4.777499846903458802e-02,-2.987176483924470008e-02,-1.411172632711129443e-02,2.059748245102546726e-02,8.465645355692237584e-02,8.645708715020720969e-02,3.904561202197261160e-02,1.511149039331117702e-02,-2.382104379631641913e-02,-5.298360916456786029e-02,-2.971556144439310709e-02,4.425525514295660517e-02,1.567070502988131969e-02,-1.443806944651647613e-02,-5.762002325357546556e-02
-1.317644748480921502e+00,-1.169579435197301454e+00,-9.693680633326835494e-01,2.968239286914712838e-01,1.155867083677695611e-01,-2.350871936891269984e-02,1.028770204205015221e-01,6.852739365804982885e-02,-2.788989769470463093e-02,-1.422500005415421043e-01,-3.949287667446865074e-02,-1.815747367282547278e-02,9.576463904004767214e-02,-9.754437154784540570e-03,-5.709479398141777129e-02,-5.266644161730624912e-02,6.680958820726168312e-02,1.330926720133086827e-01,2.203703876419123991e-02,-9.026352129798344281e-02,-5.379584720295595146e-02,-1.872784789734644462e-01,-1.227307145296672730e-01,-1.049271449162770264e-01,1.480611914738010626e-01,1.969665754324445295e-01,1.228771389528696273e-01,6.122673375649624605e-02,-1.078071191247496723e-02,5.313835796070324503e-03,-4.114444608659781344e-02,-5.858701522242820009e-02,-4.936011809213727841e-02,-9.984427459185776788e-02,5.673655573369729144e-02,9.031665995832637017e-02,1.190265551620293127e-01,5.802602657262107607e-04,-1.929657312915461498e-02,8.907401213793195160e-02,9.242972816651748302e-03,-2.242052028462679023e-02,-1.173591039147677817e-01,1.493554631968601124e-02,-7.783135238176459511e-03,2.341458524995802121e-02,-2.808121965208764531e-02,2.117208801925760369e-03
-1.508804015641801000e+00,-1.456633286916787284e+00,-1.185136771549089474e+00,6.243042634690972870e-01,5.044959309994062613e-01,2.025488863191269306e-01,-1.529968593128389343e-01,-5.158909582071027899e-02,-3.443387962600852337e-02,-4.019107967663623077e-02,-5.075278525107137367e-02,7.022653959241691168e-02,9.931080557679661247e-02,1.013302926446286480e-02,-1.725856378373356592e-01,-1.143538776632249815e-01,1.577815062714465338e-02,9.918379383064544752e-02,1.492677337243966951e-01,4.887883628392380303e-02,-2.523395610690897656e-02,-9.996649347157970933e-02,-2.119329204836947061e-02,4.545210014850907532e-02,-1.552868024794039348e-02,-1.310816712324095190e-01,-1.500960429409234076e-01,2.224513442043763237e-02,1.372475497801513566e-01,1.670791177220860013e-01,8.920117760907672610e-02,3.303054509171803738e-02,-1.412522616256521330e-03,-7.428996054880557254e-02,-1.026322101775467149e-01,-1.253372850704215502e-01,-6.059323841203275579e-02,5.598170992161130566e-02,1.364605599563558369e-01,1.067559124929550046e-01,-5.413280119060775997e-02,-6.458036778726333749e-02,-2.732977225197054036e-02,9.328216815920659100e-02,5.333802659921893508e-02,3.269054488664023279e-03,-3.056579432189443501e-02,-1.532134118443631739e-02
-1.303433448176828380e+00,-1.138155598645533395e+00,-9.366888276532389090e-01,3.100160156755156216e-01,1.598882527345823479e-01,1.049340058130972600e-02,-2.235622539841021147e-02,2.998438678736742649e-02,1.562825680047557828e-02,-5.563586789588344239e-02,-1.083445732163373643e-01,-9.868651770015854363e-02,8.919453667400474572e-02,4.198121124359905157e-03,-8.761372929718172498e-02,-4.113907593076041036e-02,4.261542611226747101e-02,6.538291143536648087e-02,4.930640504651503941e-02,-6.940528072625107292e-02,-1.186154824959004678e-01,-1.768417773183838804e-01,-6.183388048170622431e-02,4.581485987929245947e-03,1.697579981700216012e-01,8.993295463841788351e-02,7.120504120934720294e-03,4.345771421352389446e-02,2.258336854638266777e-02,1.270028073063806696e-02,2.121874773083560345e-02,1.086968786281741761e-01,1.739317256416458013e-01,-1.922418513812761687e-01,-1.808760048964880296e-01,-1.467533734397451217e-01,4.198727524584044274e-02,6.106207929975615567e-02,6.401845823905881472e-02,1.419024657478599183e-01,6.380538914715321031e-02,4.482762055508429655e-02,-1.179527884340422494e-01,-2.632495838875709149e-02,1.786432536002301869e-02,4.288998581813138061e-02,2.284360440362825234e-03,-2.806512974202544572e-02
-1.567687739418901494e+00,-1.560163533897605870e+00,-1.368683286101390451e+00,6.634638666620007452e-01,6.466008622199195255e-01,4.090506746140465943e-01,-1.699202676496731068e-01,-1.504239017046519744e-01,-8.186151703797271695e-02,6.339756026829346247e-02,1.222959518617633239e-02,-9.581719652348272276e-02,3.881946315238168910e-02,9.149111991196627602e-02,2.004085948455761601e-01,-3.560570110518169323e-02,-1.287961587571753892e-02,-6.699557106078329362e-03,1.042321993588301438e-01,6.905072947371961208e-03,-9.480493451870246335e-02,-1.661556633730257582e-01,-4.326694770519982913e-02,4.159435225361678146e-02,6.337019551197152489e-02,-1.859540327429402146e-02,-3.575701340321865707e-02,-8.304518256692412781e-02,-3.951860405381350805e-02,4.095656074709849714e-02,1.087076399389828724e-01,4.897242475845463988e-02,-3.877628469965406499e-02,-2.336366632623619252e-02,2.796631092619918102e-02,1.007990296041489688e-02,-1.904880056900455296e-02,-3.358566457854307574e-02,-3.645383636989334153e-02,1.450130167869768949e-01,9.173660947182872560e-02,4.490906818384127197e-02,-1.869174493969248674e-01,-9.809107992000781762e-02,1.637195717386923446e-02,6.493980568904500483e-02,3.078254760006793322e-02,-4.408989427116139642e-03
-1.531383789900650827e+00,-1.468655120699231098e+00,-1.218208669405244970e+00,6.558915715426606452e-01,5.375952426549165386e-01,1.716651503356182717e-01,-2.498939885297491448e-01,-1.754107442129295424e-01,-1.091740813417414399e-02,4.663929351546958202e-02,4.574420541001399110e-02,2.859428149270507036e-02,4.864367317121343071e-02,-3.334729591057641884e-02,-9.582512444723434442e-02,7.390207843156568202e-02,1.604927394981202904e-01,1.567281227522675513e-01,6.615315717314307342e-02,4.234173139786060608e-02,1.937915203545245366e-02,-1.946600753772703973e-01,-2.243655890845177303e-01,-1.970008144174846265e-01,6.510056616078323255e-02,1.291945070720540711e-01,1.387332398875558426e-01,2.916269538225352981e-02,-8.667293557685182281e-03,6.466221691220713774e-02,-9.684219853913383913e-02,-8.679864349233029630e-02,-9.365631630025755827e-02,6.981869539509170941e-02,4.199943392993371605e-02,1.226032548043287998e-03,5.821080100685356584e-02,8.793933978249335315e-02,5.611439856667867210e-02,-8.177568650559637053e-02,-9.729921252745159233e-02,-5.672578095394392728e-02,1.690322182314774740e-02,3.963941170228889310e-02,3.320962463255474478e-02,2.446815038344124504e-02,9.829660217164542038e-03,2.118460060765144613e-03
-1.493962130702963353e+00,-1.391003725852546058e+00,-1.140364892757551596e+00,5.608263480339652496e-01,3.682611812795064110e-01,8.738395771796700351e-02,-8.108374553221994741e-02,3.382600516567987187e-02,4.494443425726277891e-02,-7.261777844278126393e-02,-7.311183248193399431e-02,-2.969005026404673842e-02,2.017813939280139468e-01,1.724676289029494491e-01,1.020543541779955071e-01,-1.013632143492767257e-01,-1.457263750883349973e-01,-8.236691179511772265e-02,-1.084920126810776683e-04,4.822381114202388408e-02,-1.789905825538901096e-02,-1.800981623313945568e-01,-1.163366733111501766e-01,-1.816319290237184162e-03,1.374825701302148373e-01,-5.591590152265196560e-03,-1.030979215206901944e-01,1.289385615797003781e-01,2.137978125439854715e-01,1.631326232635825768e-01,-7.809234592909868045e-02,-6.389440969694401562e-02,4.970080626040070809e-02,-9.033289343054452802e-02,-1.278592562727945414e-01,-1.677377498781210396e-01,1.390818190623406558e-02,1.745916284122953424e-02,6.428607408553405067e-02,1.350478349367609798e-01,1.684087900695205031e-01,7.649108701599456606e-02,-8.288818597807158517e-02,-1.584373302220558333e-01,-1.206443405397925051e-01,2.692235307812699662e-03,5.962267456992471903e-02,7.572445185306235504e-02
-1.624290276256793231e+00,-1.529257882934837776e+00,-1.385564468079978351e+00,7.223674260136363490e-01,5.991461697343027915e-01,4.807794925816428200e-01,-1.322934064120079023e-01,-1.200566830049296096e-01,-6.330938400223556917e-02,-2.421965813525943020e-02,-3.219771351389719843e-02,-1.178310119785353771e-01,8.158461428622608425e-02,9.057229555256642028e-02,7.405199279021569547e-02,-7.286902576455191183e-02,-5.159326914727506430e-02,-1.755171623381596852e-02,1.084897834825055141e-01,9.174743977289417929e-02,9.028382159801501619e-03,-1.661925523416326878e-01,-1.764681277623132150e-01,-1.341994976451596211e-01,1.261543106435440431e-01,2.169288336289213470e-01,2.430724074444777227e-01,-1.778935593760393175e-02,-9.722895597874536833e-02,-1.117673438758482740e-01,-2.625356808544491299e-02,7.574426022519815428e-03,8.013952578453245601e-02,-1.719130685315888377e-02,-9.598959421668350200e-02,-1.586714677923029559e-01,5.499391689607669581e-02,6.743474386787028096e-02,-2.967372432478727982e-03,7.675340435319542853e-02,1.239571614472768091e-01,1.915730695072975776e-01,-1.083082337932919637e-01,-8.938490869249023085e-02,-1.369182178474963041e-01,1.927046908161693384e-02,-5.070708461143904472e-03,5.022393656432520143e-02
-1.587297473796258851e+00,-1.570568008640262248e+00,-1.381659652651242798e+00,6.905202368055296525e-01,6.436264291939485238e-01,3.543422926447150623e-01,-5.105580968187202473e-02,-1.780445211047345863e-02,2.624460925359177813e-02,-1.957058511264488099e-01,-1.868126827119343525e-01,-1.096253343889826148e-02,1.201635323753752760e-01,1.104639708613106563e-01,-2.622887984316278273e-02,4.977774908316450614e-02,2.756103971511386294e-02,4.084036865816957629e-02,-3.577434666182155443e-03,4.293796970212827857e-02,3.903066656425623060e-02,-8.994325074031211953e-02,-1.344147795684417779e-01,-1.414188507135691886e-01,1.083644901926747173e-01,1.085608765355311062e-01,5.044764402455735597e-02,-1.032847319857511659e-01,-3.794846489996905187e-02,1.251997819555615565e-01,8.302923058036509874e-02,-7.527951629540493260e-03,-1.259117799993791920e-01,-1.069019471179862846e-01,-2.554367599208305639e-02,4.056077307315913288e-02,2.889364308975467602e-02,4.459002688378538304e-03,1.952721621729507778e-02,1.204242411217558706e-01,7.478324303031042009e-02,-3.059308562964108483e-02,-1.230888095720330533e-01,-9.688635926167322998e-02,-4.030860529065404679e-02,6.006564131066610690e-02,6.538218378481605586e-02,6.098575964378918912e-02
-1.627458109185841995e+00,-1.656395755207259235e+00,-1.492341526846781008e+00,7.395853772201219645e-01,7.867992858352997887e-01,5.193997423923696344e-01,-1.369426625568046230e-01,-1.649649898793292824e-01,-5.673496235876860500e-02,2.766971495499190303e-03,-5.117387285418417350e-05,-3.821682843943562113e-02,-3.086725981419954565e-02,-2.207138788105170515e-02,5.532096660357346818e-02,5.237073710595264997e-02,8.151461759924308326e-02,-4.822355767500109865e-03,1.278308883558303480e-02,-1.548746449105548734e-02,1.262944248770541122e-01,-7.871601341940352714e-02,-9.463525912003746543e-02,-2.807653156026627683e-01,8.534254707213859148e-02,1.243705955085705056e-01,2.094731452725056009e-01,-6.412404996065518281e-02,-8.152700509037091869e-02,-2.035691635694004617e-02,9.739685500108584415e-02,1.035874774094543010e-01,1.107908302657292787e-02,-9.809376908936498496e-02,-9.374636861279041222e-02,-2.776874004878621474e-02,5.799684710491326972e-02,7.121868467501598146e-03,-6.166942400960076509e-02,-2.355012964617500537e-03,4.882667511663151688e-02,9.538521539491670587e-02,-2.981526641254495652e-03,-3.850149780163988206e-02,-9.554508672640570077e-02,-6.420436606329315600e-03,1.538613281203940995e-02,6.140283450437009766e-02
-1.294983365441185752e+00,-1.243617725157693643e+00,-1.070153930880444859e+00,2.491095573834676835e-01,1.830016717045687136e-01,6.982384410672448638e-02,6.642752142991954767e-02,9.195121337302644693e-02,7.394147026349344454e-02,-4.808516998639524032e-02,-1.000596065145890612e-01,-1.704620772029456499e-01,7.763175401153578348e-02,1.314155170225171365e-01,1.426623094001863712e-01,2.452686904969431786e-02,9.769623011266515347e-03,-3.469974472262146031e-02,-5.023147125157298443e-02,-4.996501227460964367e-02,2.557831038290024964e-02,-1.871466490229662938e-01,-1.716118426578179812e-01,-1.419692599963360002e-01,1.225579237861470078e-01,1.030418041814131075e-01,6.624273207013561815e-02,7.611237704059307940e-02,3.151584187920775798e-02,-5.366980823899394210e-02,2.734363389303264003e-02,7.401214912488340847e-02,1.114779717035459666e-01,-1.330957298910036557e-01,-1.128653930712850972e-01,-6.764781188128965624e-03,3.486505930851147017e-02,-3.729112317766990203e-02,-1.380964253176854561e-01,7.883984875591978914e-02,1.027915150143594580e-01,9.843390464147840080e-02,-1.647640215515354389e-02,1.483953284338218256e-02,-9.903941603768694202e-03,-2.730418677171921743e-02,-2.685132415120222021e-02,3.762981341217885162e-02
-1.619625725254779214e+00,-1.625907755199946791e+00,-1.512462731230222568e+00,7.173953563268680167e-01,6.781513716923367463e-01,5.179418576728667123e-01,-1.432730395948475788e-01,-6.707328591676466056e-02,-7.956353325524341200e-03,1.115929440017911917e-02,-1.299662761699241914e-02,-4.723536336799530333e-02,5.880720916023845363e-02,5.335630123183356804e-02,1.580715683507833424e-01,5.732194562735663107e-02,5.517204642437570361e-02,-1.025229454226180420e-01,-7.757739632535314012e-02,-9.895939914600951348e-02,-1.589618622971599241e-02,-2.584210134757322988e-02,-2.382024015732437175e-02,-1.060690939937453947e-01,-3.145561258838960178e-02,2.002683414241646087e-02,1.547494070295109547e-01,6.349595789990206129e-02,3.892113948100203724e-02,-1.224137364334486854e-02,-4.691160299406984396e-02,-4.396122100695434853e-02,-2.192214242078238673e-02,3.994851045295218228e-02,4.991412846502069067e-02,3.510521460330406907e-02,-3.402575618821855434e-03,-8.648058852660094054e-02,-2.109074236087178089e-01,2.732981924858960548e-02,8.668348144239314268e-02,2.136392184803379279e-01,-3.808902101501725201e-02,-1.497805262761445558e-02,-3.844977749739487277e-02,1.098780931199937368e-02,-7.853819000761671706e-03,-3.740187976015757216e-03
-1.721280317875856891e+00,-1.768500921272215365e+00,-1.642900111323145396e+00,8.686402561817285761e-01,9.037838310820675014e-01,6.563507091597128307e-01,-6.970980442344794359e-02,-2.649674621996339283e-02,6.271093491759108240e-02,-2.228580882094871596e-01,-2.803504317163692527e-01,-1.564442125638343117e-01,2.653157335649057313e-01,2.938765659848395773e-01,8.769363936700576290e-02,-1.973194700929996326e-01,-1.667012354895497650e-01,2.701766442976640328e-02,7.796928273704767376e-02,-2.218695546016224984e-02,-1.154496435998402237e-01,-3.888279304613905668e-02,8.876101266084601704e-02,6.316429743839042932e-02,1.383612176225220390e-03,-8.092686838354749834e-02,-1.061729241382132136e-03,9.507377335769193194e-02,9.629392279680865085e-02,2.158881500827323358e-02,-9.016002560241240249e-02,-3.315592008637435056e-02,2.310597400583065328e-02,3.047318689034198697e-02,-3.613919025024087128e-02,-9.747306968846358721e-02,-5.923878704008259805e-02,-1.110166892650771460e-02,8.979734953876021553e-02,1.119413490648343140e-02,7.072265969442902145e-03,-2.845798430090427586e-02,8.635210442089058525e-02,8.661757082951906939e-02,4.669577591304538422e-02,-3.652822741591774808e-02,-5.051087163535913221e-02,-3.611478816860114877e-02
-1.652281220139618645e+00,-1.653631214744484712e+00,-1.518937899302315708e+00,7.378070081122065638e-01,7.292261414627624339e-01,5.336386492865141662e-01,-1.603937693321189073e-01,-1.504188942825486208e-01,-4.447600139331467362e-02,3.091517710861169457e-02,1.435000339647724693e-02,-5.400600317834306635e-02,1.468647759290959143e-01,1.736209142562353813e-01,1.430029180800390931e-01,-1.580259382376446031e-01,-1.779003574823540268e-01,-7.031292875331351944e-02,9.614427631011818187e-02,1.286998708554244475e-01,3.885794616471690416e-02,-1.191088192973971810e-01,-1.569393974219064902e-01,-1.380002092687317439e-01,1.781190866665844641e-01,1.694297211082002597e-01,9.687865302328436956e-02,-1.309204864765822485e-01,-9.476640322675504435e-02,7.566467162758551412e-02,-2.035786583057679067e-02,-1.134790644257031855e-02,-6.746576816973784418e-02,-2.694221249071987803e-02,-6.255473238979326889e-02,-7.700618230894902549e-02,8.393580582702402093e-02,8.231771789379146997e-02,5.283214672408668294e-02,1.026868836708514088e-01,1.188970466956621175e-01,7.877288312875738163e-02,-1.868909892404533035e-01,-2.066503030915387562e-01,-1.540523444635005790e-01,7.876574341210222652e-02,9.793480643706969913e-02,1.047871831635794476e-01
-1.399004838451888721e+00,-1.386758082113768165e+00,-1.280403889532236938e+00,4.263495701933465720e-01,3.925710088810396292e-01,2.722760299247636295e-01,-5.009950082522320741e-02,-1.910017425359930229e-02,3.909288483603926695e-02,9.502455087520683338e-03,-5.317495100236435679e-02,-1.334085990880943262e-01,4.965847457046777824e-02,9.949960191277429367e-02,6.608073400502322003e-02,-7.443547877795186896e-02,-5.265295475934768377e-02,2.611166992350401339e-02,4.838915187088517478e-02,2.047096980798026808e-02,-3.910090997329083995e-02,-5.887228594096877154e-02,-5.691500968670008820e-02,5.968064853451458124e-02,8.461698278967053066e-02,1.005243444978923956e-01,-2.043605421456584983e-02,-1.599093321516443789e-01,-1.340820502747254173e-01,8.233993645049704838e-03,1.874865546476779110e-01,1.622029919286693267e-01,1.152489489304869830e-01,-7.285180051477511964e-02,-1.212452833493295884e-01,-2.169763389381369478e-01,-3.549277626355104923e-03,-1.875850651442140336e-03,3.239242006344110469e-02,2.345405431208716709e-02,7.609626497480276308e-02,9.417149207130894040e-02,-1.269832048857758577e-01,-1.313765229185254180e-01,-8.840463316220567580e-02,1.164292545733917050e-01,1.059455456780523802e-01,6.552164048653014161e-02
-1.509385796486209408e+00,-1.542198205747638884e+00,-1.471553043077888256e+00,5.787158544406217908e-01,6.093924497864482426e-01,5.280558508744178647e-01,-1.201684906569384925e-01,-1.003827702532334859e-01,-8.216042182362372215e-02,-1.969014368186924185e-02,-3.640072753743237022e-02,-4.581024667835429699e-03,1.091852331452708436e-01,1.072138096897507359e-01,6.528272813973021171e-02,-1.055117372256337283e-01,-7.330765347421755451e-02,-2.473881524449341937e-02,1.186323395071556541e-01,6.582490313004503435e-02,-2.562456553785423183e-02,-1.717279168923667443e-01,-1.535824103665411056e-01,-8.325223956470630127e-02,2.157634626142309886e-01,2.171756783466249063e-01,1.390020147037271947e-01,-5.439418938910317580e-02,-5.771683942877351564e-02,1.086269288452926599e-02,1.158304311409435669e-02,-1.387366572332427665e-03,-6.763224223729744078e-02,-1.654687053883926728e-01,-1.596382944802500203e-01,-2.971505391926541201e-02,-2.101726609616180394e-02,2.841090196598238318e-02,-4.446328473942501823e-03,2.600587472887510576e-01,2.093932475330235465e-01,8.768233980106548975e-02,-1.391821908142189257e-01,-1.246115125623875330e-01,-5.801994717707708443e-02,1.279156179043365073e-02,1.195759711788913805e-02,2.092733706245493430e-02
